* Freq(Hz) SPL(dB) Phase(degrees)
20.141602 89.053 -2.0020
20.507812 89.069 -1.8779
20.874023 89.073 -1.7190
21.240234 89.071 -1.5654
21.606445 89.062 -1.4459
21.972656 89.049 -1.3711
22.338867 89.032 -1.3379
22.705078 89.013 -1.3388
23.071289 88.994 -1.3685
23.437500 88.978 -1.4260
23.803711 88.965 -1.5097
24.169922 88.956 -1.6145
24.536133 88.950 -1.7314
24.902344 88.948 -1.8496
25.268555 88.949 -1.9611
25.634766 88.954 -2.0613
26.000977 88.961 -2.1479
26.367188 88.970 -2.2195
26.733398 88.980 -2.2741
27.099609 88.990 -2.3103
27.465820 88.999 -2.3282
27.832031 89.007 -2.3301
28.198242 89.014 -2.3197
28.564453 89.019 -2.3011
28.930664 89.022 -2.2780
29.296875 89.023 -2.2536
29.663086 89.022 -2.2312
30.029297 89.018 -2.2138
30.395508 89.014 -2.2041
30.761719 89.008 -2.2042
31.127930 89.002 -2.2151
31.494141 88.995 -2.2373
31.860352 88.989 -2.2702
32.226562 88.983 -2.3129
32.592773 88.978 -2.3637
32.958984 88.974 -2.4207
33.325195 88.972 -2.4814
33.691406 88.971 -2.5435
34.057617 88.971 -2.6048
34.423828 88.972 -2.6633
34.790039 88.975 -2.7172
35.156250 88.978 -2.7650
35.522461 88.982 -2.8058
35.888672 88.986 -2.8392
36.254883 88.990 -2.8655
36.621094 88.993 -2.8853
36.987305 88.996 -2.8994
37.353516 88.999 -2.9092
37.719727 89.000 -2.9159
38.085938 89.001 -2.9211
38.452148 89.001 -2.9264
38.818359 89.000 -2.9331
39.184570 88.998 -2.9425
39.550781 88.995 -2.9556
39.916992 88.993 -2.9730
40.283203 88.990 -2.9951
40.649414 88.987 -3.0220
41.015625 88.984 -3.0534
41.381836 88.981 -3.0887
41.748047 88.979 -3.1273
42.114258 88.977 -3.1682
42.480469 88.976 -3.2106
42.846680 88.975 -3.2533
43.212891 88.976 -3.2955
43.579102 88.976 -3.3362
43.945312 88.977 -3.3747
44.311523 88.978 -3.4106
44.677734 88.980 -3.4435
45.043945 88.981 -3.4734
45.410156 88.983 -3.5003
45.776367 88.984 -3.5245
46.142578 88.985 -3.5464
46.508789 88.986 -3.5665
46.875000 88.986 -3.5854
47.241211 88.986 -3.6039
47.607422 88.986 -3.6224
47.973633 88.985 -3.6415
48.339844 88.984 -3.6618
48.706055 88.983 -3.6835
49.072266 88.982 -3.7070
49.438477 88.981 -3.7323
49.804688 88.979 -3.7594
50.170898 88.978 -3.7883
50.537109 88.977 -3.8187
50.903320 88.975 -3.8503
51.269531 88.975 -3.8829
51.635742 88.974 -3.9159
52.001953 88.973 -3.9492
52.368164 88.973 -3.9822
52.734375 88.973 -4.0148
53.100586 88.973 -4.0466
53.466797 88.973 -4.0776
53.833008 88.973 -4.1076
54.199219 88.974 -4.1365
54.565430 88.974 -4.1645
54.931641 88.974 -4.1915
55.297852 88.974 -4.2178
55.664062 88.974 -4.2435
56.030273 88.974 -4.2687
56.396484 88.974 -4.2937
56.762695 88.974 -4.3186
57.128906 88.973 -4.3436
57.495117 88.973 -4.3688
57.861328 88.972 -4.3943
58.227539 88.972 -4.4203
58.593750 88.971 -4.4467
58.959961 88.971 -4.4736
59.326172 88.970 -4.5009
59.692383 88.969 -4.5285
60.058594 88.969 -4.5566
60.424805 88.968 -4.5849
60.791016 88.967 -4.6134
61.157227 88.967 -4.6421
61.523438 88.966 -4.6709
61.889648 88.966 -4.6997
62.255859 88.965 -4.7286
62.622070 88.965 -4.7573
62.988281 88.965 -4.7860
63.354492 88.964 -4.8146
63.720703 88.964 -4.8431
64.086914 88.964 -4.8714
64.453125 88.963 -4.8997
64.819336 88.963 -4.9278
65.185547 88.963 -4.9557
65.551758 88.963 -4.9835
65.917969 88.962 -5.0111
66.284180 88.962 -5.0386
66.650391 88.962 -5.0659
67.016602 88.961 -5.0931
67.382812 88.961 -5.1201
67.749023 88.961 -5.1470
68.115234 88.960 -5.1738
68.481445 88.960 -5.2005
68.847656 88.959 -5.2271
69.213867 88.959 -5.2538
69.580078 88.958 -5.2806
69.946289 88.958 -5.3074
70.312500 88.957 -5.3343
70.678711 88.957 -5.3615
71.044922 88.956 -5.3888
71.411133 88.956 -5.4163
71.777344 88.955 -5.4441
72.143555 88.954 -5.4721
72.509766 88.954 -5.5004
72.875977 88.953 -5.5288
73.242188 88.953 -5.5573
73.608398 88.952 -5.5859
73.974609 88.952 -5.6145
74.340820 88.951 -5.6431
74.707031 88.951 -5.6716
75.073242 88.950 -5.6999
75.439453 88.950 -5.7281
75.805664 88.950 -5.7560
76.171875 88.949 -5.7837
76.538086 88.949 -5.8111
76.904297 88.949 -5.8384
77.270508 88.948 -5.8654
77.636719 88.948 -5.8922
78.002930 88.948 -5.9188
78.369141 88.947 -5.9454
78.735352 88.947 -5.9720
79.101562 88.946 -5.9986
79.467773 88.945 -6.0253
79.833984 88.945 -6.0521
80.200195 88.944 -6.0791
80.566406 88.944 -6.1063
80.932617 88.943 -6.1336
81.298828 88.942 -6.1612
81.665039 88.942 -6.1890
82.031250 88.941 -6.2169
82.397461 88.940 -6.2450
82.763672 88.940 -6.2731
83.129883 88.939 -6.3014
83.496094 88.939 -6.3296
83.862305 88.938 -6.3578
84.228516 88.938 -6.3859
84.594727 88.937 -6.4139
84.960938 88.937 -6.4418
85.327148 88.936 -6.4695
85.693359 88.936 -6.4971
86.059570 88.935 -6.5245
86.425781 88.935 -6.5518
86.791992 88.934 -6.5790
87.158203 88.934 -6.6061
87.524414 88.933 -6.6331
87.890625 88.933 -6.6601
88.256836 88.932 -6.6871
88.623047 88.932 -6.7140
88.989258 88.931 -6.7410
89.355469 88.931 -6.7681
89.721680 88.930 -6.7952
90.087891 88.929 -6.8225
90.454102 88.929 -6.8497
90.820312 88.928 -6.8771
91.186523 88.927 -6.9045
91.552734 88.927 -6.9320
91.918945 88.926 -6.9595
92.285156 88.926 -6.9871
92.651367 88.925 -7.0147
93.017578 88.924 -7.0423
93.383789 88.924 -7.0699
93.750000 88.923 -7.0975
94.116211 88.923 -7.1251
94.482422 88.922 -7.1527
94.848633 88.921 -7.1802
95.214844 88.921 -7.2078
95.581055 88.920 -7.2353
95.947266 88.920 -7.2627
96.313477 88.919 -7.2902
96.679688 88.918 -7.3176
97.045898 88.918 -7.3449
97.412109 88.917 -7.3723
97.778320 88.917 -7.3996
98.144531 88.916 -7.4268
98.510742 88.915 -7.4540
98.876953 88.915 -7.4812
99.243164 88.914 -7.5084
99.609375 88.914 -7.5355
99.975586 88.913 -7.5626
100.341797 88.912 -7.5897
100.708008 88.912 -7.6167
101.074219 88.911 -7.6438
101.440430 88.910 -7.6709
101.806641 88.910 -7.6980
102.172852 88.909 -7.7252
102.539062 88.908 -7.7524
102.905273 88.908 -7.7796
103.271484 88.907 -7.8069
103.637695 88.906 -7.8343
104.003906 88.906 -7.8617
104.370117 88.905 -7.8892
104.736328 88.904 -7.9166
105.102539 88.904 -7.9442
105.468750 88.903 -7.9717
105.834961 88.902 -7.9992
106.201172 88.902 -8.0267
106.567383 88.901 -8.0541
106.933594 88.900 -8.0815
107.299805 88.900 -8.1089
107.666016 88.899 -8.1362
108.032227 88.898 -8.1634
108.398438 88.898 -8.1905
108.764648 88.897 -8.2176
109.130859 88.896 -8.2445
109.497070 88.896 -8.2715
109.863281 88.895 -8.2984
110.229492 88.894 -8.3253
110.595703 88.894 -8.3522
110.961914 88.893 -8.3791
111.328125 88.892 -8.4060
111.694336 88.891 -8.4330
112.060547 88.891 -8.4600
112.426758 88.890 -8.4871
112.792969 88.889 -8.5143
113.159180 88.888 -8.5415
113.525391 88.888 -8.5687
113.891602 88.887 -8.5960
114.257812 88.886 -8.6234
114.624023 88.885 -8.6507
114.990234 88.885 -8.6781
115.356445 88.884 -8.7054
115.722656 88.883 -8.7327
116.088867 88.883 -8.7600
116.455078 88.882 -8.7873
116.821289 88.881 -8.8145
117.187500 88.880 -8.8416
117.553711 88.880 -8.8687
117.919922 88.879 -8.8958
118.286133 88.878 -8.9228
118.652344 88.878 -8.9497
119.018555 88.877 -8.9767
119.384766 88.876 -9.0036
119.750977 88.875 -9.0304
120.117188 88.875 -9.0573
120.483398 88.874 -9.0842
120.849609 88.873 -9.1111
121.215820 88.872 -9.1381
121.582031 88.872 -9.1650
121.948242 88.871 -9.1920
122.314453 88.870 -9.2189
122.680664 88.869 -9.2460
123.046875 88.868 -9.2730
123.413086 88.868 -9.3000
123.779297 88.867 -9.3271
124.145508 88.866 -9.3541
124.511719 88.865 -9.3812
124.877930 88.864 -9.4083
125.244141 88.864 -9.4353
125.610352 88.863 -9.4624
125.976562 88.862 -9.4894
126.342773 88.861 -9.5165
126.708984 88.860 -9.5435
127.075195 88.860 -9.5705
127.441406 88.859 -9.5975
127.807617 88.858 -9.6245
128.173828 88.857 -9.6514
128.540039 88.857 -9.6784
128.906250 88.856 -9.7053
129.272461 88.855 -9.7322
129.638672 88.854 -9.7591
130.004883 88.853 -9.7860
130.371094 88.852 -9.8128
130.737305 88.852 -9.8396
131.103516 88.851 -9.8665
131.469727 88.850 -9.8933
131.835938 88.849 -9.9201
132.202148 88.848 -9.9469
132.568359 88.848 -9.9737
132.934570 88.847 -10.0004
133.300781 88.846 -10.0272
133.666992 88.845 -10.0540
134.033203 88.844 -10.0808
134.399414 88.843 -10.1076
134.765625 88.842 -10.1345
135.131836 88.842 -10.1613
135.498047 88.841 -10.1882
135.864258 88.840 -10.2151
136.230469 88.839 -10.2420
136.596680 88.838 -10.2689
136.962891 88.837 -10.2958
137.329102 88.836 -10.3227
137.695312 88.836 -10.3496
138.061523 88.835 -10.3765
138.427734 88.834 -10.4034
138.793945 88.833 -10.4302
139.160156 88.832 -10.4570
139.526367 88.831 -10.4838
139.892578 88.830 -10.5105
140.258789 88.830 -10.5372
140.625000 88.829 -10.5639
140.991211 88.828 -10.5906
141.357422 88.827 -10.6172
141.723633 88.826 -10.6438
142.089844 88.825 -10.6704
142.456055 88.824 -10.6970
142.822266 88.823 -10.7236
143.188477 88.823 -10.7502
143.554688 88.822 -10.7768
143.920898 88.821 -10.8035
144.287109 88.820 -10.8301
144.653320 88.819 -10.8568
145.019531 88.818 -10.8835
145.385742 88.817 -10.9102
145.751953 88.816 -10.9370
146.118164 88.815 -10.9637
146.484375 88.814 -10.9905
146.850586 88.813 -11.0172
147.216797 88.813 -11.0440
147.583008 88.812 -11.0707
147.949219 88.811 -11.0974
148.315430 88.810 -11.1241
148.681641 88.809 -11.1508
149.047852 88.808 -11.1774
149.414062 88.807 -11.2040
149.780273 88.806 -11.2306
150.146484 88.805 -11.2571
150.512695 88.804 -11.2836
150.878906 88.803 -11.3101
151.245117 88.802 -11.3366
151.611328 88.802 -11.3631
151.977539 88.801 -11.3896
152.343750 88.800 -11.4161
152.709961 88.799 -11.4426
153.076172 88.798 -11.4690
153.442383 88.797 -11.4955
153.808594 88.796 -11.5220
154.174805 88.795 -11.5485
154.541016 88.794 -11.5751
154.907227 88.793 -11.6016
155.273438 88.792 -11.6281
155.639648 88.791 -11.6546
156.005859 88.790 -11.6812
156.372070 88.789 -11.7077
156.738281 88.788 -11.7342
157.104492 88.787 -11.7607
157.470703 88.786 -11.7872
157.836914 88.785 -11.8137
158.203125 88.784 -11.8402
158.569336 88.783 -11.8667
158.935547 88.782 -11.8931
159.301758 88.781 -11.9196
159.667969 88.780 -11.9460
160.034180 88.779 -11.9724
160.400391 88.778 -11.9989
160.766602 88.777 -12.0253
161.132812 88.776 -12.0517
161.499023 88.775 -12.0780
161.865234 88.774 -12.1044
162.231445 88.773 -12.1307
162.597656 88.772 -12.1571
162.963867 88.771 -12.1834
163.330078 88.770 -12.2098
163.696289 88.769 -12.2361
164.062500 88.768 -12.2624
164.428711 88.767 -12.2887
164.794922 88.766 -12.3150
165.161133 88.765 -12.3412
165.527344 88.764 -12.3675
165.893555 88.763 -12.3938
166.259766 88.762 -12.4201
166.625977 88.761 -12.4464
166.992188 88.760 -12.4727
167.358398 88.759 -12.4990
167.724609 88.758 -12.5254
168.090820 88.757 -12.5517
168.457031 88.756 -12.5780
168.823242 88.755 -12.6043
169.189453 88.754 -12.6306
169.555664 88.753 -12.6569
169.921875 88.752 -12.6832
170.288086 88.751 -12.7095
170.654297 88.750 -12.7358
171.020508 88.749 -12.7620
171.386719 88.748 -12.7882
171.752930 88.747 -12.8144
172.119141 88.746 -12.8406
172.485352 88.745 -12.8667
172.851562 88.744 -12.8929
173.217773 88.742 -12.9190
173.583984 88.741 -12.9451
173.950195 88.740 -12.9712
174.316406 88.739 -12.9973
174.682617 88.738 -13.0234
175.048828 88.737 -13.0495
175.415039 88.736 -13.0756
175.781250 88.735 -13.1017
176.147461 88.734 -13.1278
176.513672 88.733 -13.1539
176.879883 88.732 -13.1800
177.246094 88.731 -13.2062
177.612305 88.730 -13.2323
177.978516 88.728 -13.2584
178.344727 88.727 -13.2846
178.710938 88.726 -13.3107
179.077148 88.725 -13.3368
179.443359 88.724 -13.3629
179.809570 88.723 -13.3890
180.175781 88.722 -13.4151
180.541992 88.721 -13.4412
180.908203 88.720 -13.4672
181.274414 88.719 -13.4933
181.640625 88.718 -13.5193
182.006836 88.716 -13.5452
182.373047 88.715 -13.5712
182.739258 88.714 -13.5972
183.105469 88.713 -13.6231
183.471680 88.712 -13.6490
183.837891 88.711 -13.6750
184.204102 88.710 -13.7009
184.570312 88.709 -13.7268
184.936523 88.708 -13.7528
185.302734 88.706 -13.7787
185.668945 88.705 -13.8046
186.035156 88.704 -13.8305
186.401367 88.703 -13.8564
186.767578 88.702 -13.8824
187.133789 88.701 -13.9083
187.500000 88.700 -13.9342
187.866211 88.698 -13.9601
188.232422 88.697 -13.9860
188.598633 88.696 -14.0119
188.964844 88.695 -14.0378
189.331055 88.694 -14.0637
189.697266 88.693 -14.0896
190.063477 88.692 -14.1155
190.429688 88.690 -14.1413
190.795898 88.689 -14.1672
191.162109 88.688 -14.1930
191.528320 88.687 -14.2188
191.894531 88.686 -14.2446
192.260742 88.685 -14.2705
192.626953 88.684 -14.2963
192.993164 88.682 -14.3220
193.359375 88.681 -14.3478
193.725586 88.680 -14.3736
194.091797 88.679 -14.3993
194.458008 88.678 -14.4251
194.824219 88.677 -14.4508
195.190430 88.675 -14.4765
195.556641 88.674 -14.5022
195.922852 88.673 -14.5280
196.289062 88.672 -14.5536
196.655273 88.671 -14.5793
197.021484 88.669 -14.6050
197.387695 88.668 -14.6307
197.753906 88.667 -14.6564
198.120117 88.666 -14.6821
198.486328 88.665 -14.7078
198.852539 88.663 -14.7334
199.218750 88.662 -14.7591
199.584961 88.661 -14.7848
199.951172 88.660 -14.8104
200.317383 88.659 -14.8361
200.683594 88.657 -14.8618
201.049805 88.656 -14.8874
201.416016 88.655 -14.9131
201.782227 88.654 -14.9387
202.148438 88.653 -14.9643
202.514648 88.651 -14.9900
202.880859 88.650 -15.0156
203.247070 88.649 -15.0411
203.613281 88.648 -15.0667
203.979492 88.647 -15.0923
204.345703 88.645 -15.1178
204.711914 88.644 -15.1433
205.078125 88.643 -15.1688
205.444336 88.642 -15.1943
205.810547 88.641 -15.2198
206.176758 88.639 -15.2453
206.542969 88.638 -15.2707
206.909180 88.637 -15.2962
207.275391 88.636 -15.3217
207.641602 88.634 -15.3471
208.007812 88.633 -15.3726
208.374023 88.632 -15.3981
208.740234 88.631 -15.4235
209.106445 88.629 -15.4490
209.472656 88.628 -15.4745
209.838867 88.627 -15.5000
210.205078 88.626 -15.5254
210.571289 88.624 -15.5509
210.937500 88.623 -15.5763
211.303711 88.622 -15.6018
211.669922 88.621 -15.6272
212.036133 88.619 -15.6526
212.402344 88.618 -15.6780
212.768555 88.617 -15.7034
213.134766 88.616 -15.7287
213.500977 88.614 -15.7541
213.867188 88.613 -15.7794
214.233398 88.612 -15.8047
214.599609 88.610 -15.8300
214.965820 88.609 -15.8553
215.332031 88.608 -15.8806
215.698242 88.607 -15.9059
216.064453 88.605 -15.9312
216.430664 88.604 -15.9564
216.796875 88.603 -15.9817
217.163086 88.601 -16.0070
217.529297 88.600 -16.0322
217.895508 88.599 -16.0575
218.261719 88.598 -16.0827
218.627930 88.596 -16.1080
218.994141 88.595 -16.1332
219.360352 88.594 -16.1585
219.726562 88.592 -16.1837
220.092773 88.591 -16.2090
220.458984 88.590 -16.2342
220.825195 88.589 -16.2594
221.191406 88.587 -16.2846
221.557617 88.586 -16.3098
221.923828 88.585 -16.3349
222.290039 88.583 -16.3601
222.656250 88.582 -16.3853
223.022461 88.581 -16.4104
223.388672 88.579 -16.4356
223.754883 88.578 -16.4607
224.121094 88.577 -16.4858
224.487305 88.575 -16.5109
224.853516 88.574 -16.5360
225.219727 88.573 -16.5611
225.585938 88.571 -16.5862
225.952148 88.570 -16.6113
226.318359 88.569 -16.6363
226.684570 88.567 -16.6614
227.050781 88.566 -16.6864
227.416992 88.565 -16.7115
227.783203 88.563 -16.7365
228.149414 88.562 -16.7615
228.515625 88.561 -16.7865
228.881836 88.559 -16.8115
229.248047 88.558 -16.8365
229.614258 88.557 -16.8615
229.980469 88.555 -16.8865
230.346680 88.554 -16.9115
230.712891 88.553 -16.9364
231.079102 88.551 -16.9614
231.445312 88.550 -16.9864
231.811523 88.549 -17.0113
232.177734 88.547 -17.0363
232.543945 88.546 -17.0612
232.910156 88.545 -17.0862
233.276367 88.543 -17.1111
233.642578 88.542 -17.1360
234.008789 88.540 -17.1609
234.375000 88.539 -17.1858
234.741211 88.538 -17.2107
235.107422 88.536 -17.2356
235.473633 88.535 -17.2605
235.839844 88.534 -17.2853
236.206055 88.532 -17.3101
236.572266 88.531 -17.3349
236.938477 88.530 -17.3598
237.304688 88.528 -17.3846
237.670898 88.527 -17.4093
238.037109 88.525 -17.4341
238.403320 88.524 -17.4589
238.769531 88.523 -17.4837
239.135742 88.521 -17.5084
239.501953 88.520 -17.5332
239.868164 88.518 -17.5579
240.234375 88.517 -17.5827
240.600586 88.516 -17.6074
240.966797 88.514 -17.6322
241.333008 88.513 -17.6569
241.699219 88.511 -17.6816
242.065430 88.510 -17.7064
242.431641 88.509 -17.7311
242.797852 88.507 -17.7558
243.164062 88.506 -17.7805
243.530273 88.504 -17.8052
243.896484 88.503 -17.8299
244.262695 88.502 -17.8545
244.628906 88.500 -17.8792
244.995117 88.499 -17.9038
245.361328 88.497 -17.9284
245.727539 88.496 -17.9530
246.093750 88.494 -17.9776
246.459961 88.493 -18.0022
246.826172 88.492 -18.0268
247.192383 88.490 -18.0514
247.558594 88.489 -18.0759
247.924805 88.487 -18.1005
248.291016 88.486 -18.1250
248.657227 88.484 -18.1496
249.023438 88.483 -18.1741
249.389648 88.482 -18.1986
249.755859 88.480 -18.2231
250.122070 88.479 -18.2477
250.488281 88.477 -18.2722
250.854492 88.476 -18.2967
251.220703 88.474 -18.3212
251.586914 88.473 -18.3457
251.953125 88.471 -18.3701
252.319336 88.470 -18.3946
252.685547 88.469 -18.4191
253.051758 88.467 -18.4435
253.417969 88.466 -18.4680
253.784180 88.464 -18.4924
254.150391 88.463 -18.5168
254.516602 88.461 -18.5412
254.882812 88.460 -18.5656
255.249023 88.458 -18.5900
255.615234 88.457 -18.6144
255.981445 88.455 -18.6388
256.347656 88.454 -18.6632
256.713867 88.453 -18.6875
257.080078 88.451 -18.7119
257.446289 88.450 -18.7362
257.812500 88.448 -18.7605
258.178711 88.447 -18.7848
258.544922 88.445 -18.8091
258.911133 88.444 -18.8334
259.277344 88.442 -18.8577
259.643555 88.441 -18.8820
260.009766 88.439 -18.9062
260.375977 88.438 -18.9305
260.742188 88.436 -18.9548
261.108398 88.435 -18.9790
261.474609 88.433 -19.0032
261.840820 88.432 -19.0274
262.207031 88.430 -19.0517
262.573242 88.429 -19.0759
262.939453 88.427 -19.1001
263.305664 88.426 -19.1243
263.671875 88.424 -19.1485
264.038086 88.423 -19.1727
264.404297 88.421 -19.1968
264.770508 88.420 -19.2210
265.136719 88.418 -19.2452
265.502930 88.417 -19.2693
265.869141 88.415 -19.2935
266.235352 88.414 -19.3176
266.601562 88.412 -19.3417
266.967773 88.411 -19.3658
267.333984 88.409 -19.3899
267.700195 88.408 -19.4140
268.066406 88.406 -19.4381
268.432617 88.405 -19.4621
268.798828 88.403 -19.4862
269.165039 88.402 -19.5102
269.531250 88.400 -19.5342
269.897461 88.399 -19.5582
270.263672 88.397 -19.5822
270.629883 88.396 -19.6062
270.996094 88.394 -19.6302
271.362305 88.393 -19.6542
271.728516 88.391 -19.6782
272.094727 88.389 -19.7021
272.460938 88.388 -19.7261
272.827148 88.386 -19.7501
273.193359 88.385 -19.7740
273.559570 88.383 -19.7980
273.925781 88.382 -19.8219
274.291992 88.380 -19.8458
274.658203 88.379 -19.8698
275.024414 88.377 -19.8937
275.390625 88.376 -19.9176
275.756836 88.374 -19.9415
276.123047 88.372 -19.9654
276.489258 88.371 -19.9892
276.855469 88.369 -20.0131
277.221680 88.368 -20.0369
277.587891 88.366 -20.0608
277.954102 88.365 -20.0846
278.320312 88.363 -20.1084
278.686523 88.362 -20.1322
279.052734 88.360 -20.1560
279.418945 88.358 -20.1798
279.785156 88.357 -20.2035
280.151367 88.355 -20.2273
280.517578 88.354 -20.2510
280.883789 88.352 -20.2748
281.250000 88.351 -20.2985
281.616211 88.349 -20.3222
281.982422 88.347 -20.3460
282.348633 88.346 -20.3697
282.714844 88.344 -20.3934
283.081055 88.343 -20.4171
283.447266 88.341 -20.4408
283.813477 88.340 -20.4645
284.179688 88.338 -20.4882
284.545898 88.336 -20.5118
284.912109 88.335 -20.5355
285.278320 88.333 -20.5591
285.644531 88.332 -20.5828
286.010742 88.330 -20.6064
286.376953 88.328 -20.6300
286.743164 88.327 -20.6536
287.109375 88.325 -20.6772
287.475586 88.324 -20.7008
287.841797 88.322 -20.7243
288.208008 88.321 -20.7479
288.574219 88.319 -20.7715
288.940430 88.317 -20.7950
289.306641 88.316 -20.8185
289.672852 88.314 -20.8421
290.039062 88.312 -20.8656
290.405273 88.311 -20.8891
290.771484 88.309 -20.9126
291.137695 88.308 -20.9361
291.503906 88.306 -20.9595
291.870117 88.304 -20.9830
292.236328 88.303 -21.0064
292.602539 88.301 -21.0299
292.968750 88.300 -21.0533
293.334961 88.298 -21.0767
293.701172 88.296 -21.1002
294.067383 88.295 -21.1236
294.433594 88.293 -21.1470
294.799805 88.291 -21.1704
295.166016 88.290 -21.1938
295.532227 88.288 -21.2172
295.898438 88.287 -21.2405
296.264648 88.285 -21.2639
296.630859 88.283 -21.2872
296.997070 88.282 -21.3106
297.363281 88.280 -21.3339
297.729492 88.278 -21.3572
