* Freq(Hz) SPL(dB) Phase(degrees)
20.141602 90.303 -2.0020
20.507812 90.319 -1.8779
20.874023 90.323 -1.7190
21.240234 90.321 -1.5654
21.606445 90.312 -1.4459
21.972656 90.299 -1.3711
22.338867 90.282 -1.3379
22.705078 90.263 -1.3388
23.071289 90.244 -1.3685
23.437500 90.228 -1.4260
23.803711 90.215 -1.5097
24.169922 90.206 -1.6145
24.536133 90.200 -1.7314
24.902344 90.198 -1.8496
25.268555 90.199 -1.9611
25.634766 90.204 -2.0613
26.000977 90.211 -2.1479
26.367188 90.220 -2.2195
26.733398 90.230 -2.2741
27.099609 90.240 -2.3103
27.465820 90.249 -2.3282
27.832031 90.257 -2.3301
28.198242 90.264 -2.3197
28.564453 90.269 -2.3011
28.930664 90.272 -2.2780
29.296875 90.273 -2.2536
29.663086 90.272 -2.2313
30.029297 90.268 -2.2138
30.395508 90.264 -2.2041
30.761719 90.258 -2.2042
31.127930 90.252 -2.2151
31.494141 90.245 -2.2373
31.860352 90.239 -2.2702
32.226562 90.233 -2.3129
32.592773 90.228 -2.3637
32.958984 90.224 -2.4207
33.325195 90.222 -2.4814
33.691406 90.221 -2.5435
34.057617 90.221 -2.6048
34.423828 90.222 -2.6633
34.790039 90.225 -2.7172
35.156250 90.228 -2.7650
35.522461 90.232 -2.8058
35.888672 90.236 -2.8392
36.254883 90.240 -2.8655
36.621094 90.243 -2.8853
36.987305 90.246 -2.8994
37.353516 90.249 -2.9092
37.719727 90.250 -2.9159
38.085938 90.251 -2.9211
38.452148 90.251 -2.9264
38.818359 90.250 -2.9331
39.184570 90.248 -2.9425
39.550781 90.245 -2.9556
39.916992 90.243 -2.9730
40.283203 90.240 -2.9951
40.649414 90.237 -3.0220
41.015625 90.234 -3.0534
41.381836 90.231 -3.0887
41.748047 90.229 -3.1273
42.114258 90.227 -3.1682
42.480469 90.226 -3.2106
42.846680 90.225 -3.2533
43.212891 90.226 -3.2955
43.579102 90.226 -3.3362
43.945312 90.227 -3.3747
44.311523 90.228 -3.4106
44.677734 90.230 -3.4435
45.043945 90.231 -3.4734
45.410156 90.233 -3.5003
45.776367 90.234 -3.5245
46.142578 90.235 -3.5464
46.508789 90.236 -3.5665
46.875000 90.236 -3.5854
47.241211 90.236 -3.6039
47.607422 90.236 -3.6224
47.973633 90.235 -3.6415
48.339844 90.234 -3.6618
48.706055 90.233 -3.6835
49.072266 90.232 -3.7070
49.438477 90.231 -3.7323
49.804688 90.229 -3.7594
50.170898 90.228 -3.7883
50.537109 90.227 -3.8187
50.903320 90.225 -3.8503
51.269531 90.225 -3.8829
51.635742 90.224 -3.9159
52.001953 90.223 -3.9491
52.368164 90.223 -3.9822
52.734375 90.223 -4.0148
53.100586 90.223 -4.0466
53.466797 90.223 -4.0776
53.833008 90.223 -4.1076
54.199219 90.224 -4.1365
54.565430 90.224 -4.1645
54.931641 90.224 -4.1915
55.297852 90.224 -4.2178
55.664062 90.224 -4.2434
56.030273 90.224 -4.2687
56.396484 90.224 -4.2936
56.762695 90.224 -4.3186
57.128906 90.223 -4.3436
57.495117 90.223 -4.3688
57.861328 90.222 -4.3943
58.227539 90.222 -4.4203
58.593750 90.221 -4.4467
58.959961 90.221 -4.4736
59.326172 90.220 -4.5009
59.692383 90.219 -4.5285
60.058594 90.219 -4.5566
60.424805 90.218 -4.5849
60.791016 90.217 -4.6134
61.157227 90.217 -4.6421
61.523438 90.216 -4.6709
61.889648 90.216 -4.6997
62.255859 90.215 -4.7286
62.622070 90.215 -4.7573
62.988281 90.215 -4.7860
63.354492 90.214 -4.8146
63.720703 90.214 -4.8431
64.086914 90.214 -4.8714
64.453125 90.213 -4.8997
64.819336 90.213 -4.9277
65.185547 90.213 -4.9557
65.551758 90.213 -4.9835
65.917969 90.212 -5.0111
66.284180 90.212 -5.0386
66.650391 90.212 -5.0659
67.016602 90.211 -5.0931
67.382812 90.211 -5.1201
67.749023 90.211 -5.1470
68.115234 90.210 -5.1738
68.481445 90.210 -5.2005
68.847656 90.209 -5.2271
69.213867 90.209 -5.2538
69.580078 90.208 -5.2806
69.946289 90.208 -5.3074
70.312500 90.207 -5.3343
70.678711 90.207 -5.3615
71.044922 90.206 -5.3888
71.411133 90.206 -5.4163
71.777344 90.205 -5.4441
72.143555 90.204 -5.4721
72.509766 90.204 -5.5004
72.875977 90.203 -5.5287
73.242188 90.203 -5.5573
73.608398 90.202 -5.5859
73.974609 90.202 -5.6145
74.340820 90.201 -5.6431
74.707031 90.201 -5.6716
75.073242 90.200 -5.6999
75.439453 90.200 -5.7281
75.805664 90.200 -5.7560
76.171875 90.199 -5.7837
76.538086 90.199 -5.8112
76.904297 90.199 -5.8384
77.270508 90.198 -5.8654
77.636719 90.198 -5.8922
78.002930 90.198 -5.9189
78.369141 90.197 -5.9455
78.735352 90.197 -5.9720
79.101562 90.196 -5.9986
79.467773 90.195 -6.0253
79.833984 90.195 -6.0521
80.200195 90.194 -6.0791
80.566406 90.194 -6.1063
80.932617 90.193 -6.1336
81.298828 90.192 -6.1612
81.665039 90.192 -6.1890
82.031250 90.191 -6.2169
82.397461 90.190 -6.2450
82.763672 90.190 -6.2731
83.129883 90.189 -6.3014
83.496094 90.189 -6.3296
83.862305 90.188 -6.3578
84.228516 90.188 -6.3859
84.594727 90.187 -6.4139
84.960938 90.187 -6.4418
85.327148 90.186 -6.4695
85.693359 90.186 -6.4971
86.059570 90.185 -6.5245
86.425781 90.185 -6.5518
86.791992 90.184 -6.5790
87.158203 90.184 -6.6061
87.524414 90.183 -6.6331
87.890625 90.183 -6.6601
88.256836 90.182 -6.6870
88.623047 90.182 -6.7140
88.989258 90.181 -6.7410
89.355469 90.181 -6.7681
89.721680 90.180 -6.7952
90.087891 90.179 -6.8224
90.454102 90.179 -6.8497
90.820312 90.178 -6.8771
91.186523 90.177 -6.9045
91.552734 90.177 -6.9320
91.918945 90.176 -6.9595
92.285156 90.176 -6.9871
92.651367 90.175 -7.0147
93.017578 90.174 -7.0423
93.383789 90.174 -7.0699
93.750000 90.173 -7.0975
94.116211 90.173 -7.1251
94.482422 90.172 -7.1527
94.848633 90.171 -7.1802
95.214844 90.171 -7.2078
95.581055 90.170 -7.2353
95.947266 90.170 -7.2627
96.313477 90.169 -7.2902
96.679688 90.168 -7.3176
97.045898 90.168 -7.3449
97.412109 90.167 -7.3723
97.778320 90.167 -7.3996
98.144531 90.166 -7.4268
98.510742 90.165 -7.4540
98.876953 90.165 -7.4812
99.243164 90.164 -7.5084
99.609375 90.164 -7.5355
99.975586 90.163 -7.5626
100.341797 90.162 -7.5897
100.708008 90.162 -7.6167
101.074219 90.161 -7.6438
101.440430 90.160 -7.6709
101.806641 90.160 -7.6980
102.172852 90.159 -7.7252
102.539062 90.158 -7.7524
102.905273 90.158 -7.7796
103.271484 90.157 -7.8069
103.637695 90.156 -7.8343
104.003906 90.156 -7.8617
104.370117 90.155 -7.8892
104.736328 90.154 -7.9167
105.102539 90.154 -7.9442
105.468750 90.153 -7.9717
105.834961 90.152 -7.9992
106.201172 90.152 -8.0267
106.567383 90.151 -8.0541
106.933594 90.150 -8.0815
107.299805 90.150 -8.1089
107.666016 90.149 -8.1362
108.032227 90.148 -8.1633
108.398438 90.148 -8.1905
108.764648 90.147 -8.2175
109.130859 90.146 -8.2445
109.497070 90.146 -8.2715
109.863281 90.145 -8.2984
110.229492 90.144 -8.3253
110.595703 90.144 -8.3522
110.961914 90.143 -8.3791
111.328125 90.142 -8.4060
111.694336 90.141 -8.4330
112.060547 90.141 -8.4601
112.426758 90.140 -8.4871
112.792969 90.139 -8.5143
113.159180 90.138 -8.5415
113.525391 90.138 -8.5687
113.891602 90.137 -8.5960
114.257812 90.136 -8.6234
114.624023 90.135 -8.6507
114.990234 90.135 -8.6781
115.356445 90.134 -8.7054
115.722656 90.133 -8.7327
116.088867 90.133 -8.7600
116.455078 90.132 -8.7873
116.821289 90.131 -8.8145
117.187500 90.130 -8.8416
117.553711 90.130 -8.8687
117.919922 90.129 -8.8958
118.286133 90.128 -8.9228
118.652344 90.128 -8.9497
119.018555 90.127 -8.9767
119.384766 90.126 -9.0036
119.750977 90.125 -9.0304
120.117188 90.125 -9.0573
120.483398 90.124 -9.0842
120.849609 90.123 -9.1111
121.215820 90.122 -9.1381
121.582031 90.122 -9.1650
121.948242 90.121 -9.1919
122.314453 90.120 -9.2189
122.680664 90.119 -9.2459
123.046875 90.118 -9.2730
123.413086 90.118 -9.3000
123.779297 90.117 -9.3271
124.145508 90.116 -9.3541
124.511719 90.115 -9.3812
124.877930 90.114 -9.4083
125.244141 90.114 -9.4353
125.610352 90.113 -9.4624
125.976562 90.112 -9.4894
126.342773 90.111 -9.5165
126.708984 90.110 -9.5435
127.075195 90.110 -9.5705
127.441406 90.109 -9.5975
127.807617 90.108 -9.6245
128.173828 90.107 -9.6514
128.540039 90.107 -9.6784
128.906250 90.106 -9.7053
129.272461 90.105 -9.7322
129.638672 90.104 -9.7591
130.004883 90.103 -9.7860
130.371094 90.102 -9.8128
130.737305 90.102 -9.8397
131.103516 90.101 -9.8665
131.469727 90.100 -9.8933
131.835938 90.099 -9.9201
132.202148 90.098 -9.9469
132.568359 90.098 -9.9737
132.934570 90.097 -10.0004
133.300781 90.096 -10.0272
133.666992 90.095 -10.0540
134.033203 90.094 -10.0808
134.399414 90.093 -10.1076
134.765625 90.092 -10.1345
135.131836 90.092 -10.1613
135.498047 90.091 -10.1882
135.864258 90.090 -10.2151
136.230469 90.089 -10.2420
136.596680 90.088 -10.2689
136.962891 90.087 -10.2958
137.329102 90.086 -10.3227
137.695312 90.086 -10.3496
138.061523 90.085 -10.3765
138.427734 90.084 -10.4034
138.793945 90.083 -10.4302
139.160156 90.082 -10.4570
139.526367 90.081 -10.4838
139.892578 90.080 -10.5105
140.258789 90.080 -10.5372
140.625000 90.079 -10.5639
140.991211 90.078 -10.5906
141.357422 90.077 -10.6172
141.723633 90.076 -10.6438
142.089844 90.075 -10.6704
142.456055 90.074 -10.6970
142.822266 90.073 -10.7236
143.188477 90.073 -10.7502
143.554688 90.072 -10.7768
143.920898 90.071 -10.8035
144.287109 90.070 -10.8301
144.653320 90.069 -10.8568
145.019531 90.068 -10.8835
145.385742 90.067 -10.9102
145.751953 90.066 -10.9370
146.118164 90.065 -10.9637
146.484375 90.064 -10.9905
146.850586 90.063 -11.0172
147.216797 90.063 -11.0440
147.583008 90.062 -11.0707
147.949219 90.061 -11.0974
148.315430 90.060 -11.1241
148.681641 90.059 -11.1507
149.047852 90.058 -11.1774
149.414062 90.057 -11.2040
149.780273 90.056 -11.2306
150.146484 90.055 -11.2571
150.512695 90.054 -11.2836
150.878906 90.053 -11.3101
151.245117 90.052 -11.3366
151.611328 90.051 -11.3631
151.977539 90.051 -11.3896
152.343750 90.050 -11.4161
152.709961 90.049 -11.4426
153.076172 90.048 -11.4690
153.442383 90.047 -11.4955
153.808594 90.046 -11.5220
154.174805 90.045 -11.5485
154.541016 90.044 -11.5751
154.907227 90.043 -11.6016
155.273438 90.042 -11.6281
155.639648 90.041 -11.6546
156.005859 90.040 -11.6812
156.372070 90.039 -11.7077
156.738281 90.038 -11.7342
157.104492 90.037 -11.7607
157.470703 90.036 -11.7872
157.836914 90.035 -11.8137
158.203125 90.034 -11.8402
158.569336 90.033 -11.8667
158.935547 90.032 -11.8931
159.301758 90.031 -11.9196
159.667969 90.030 -11.9460
160.034180 90.029 -11.9724
160.400391 90.028 -11.9989
160.766602 90.027 -12.0253
161.132812 90.026 -12.0517
161.499023 90.025 -12.0780
161.865234 90.024 -12.1044
162.231445 90.023 -12.1308
162.597656 90.022 -12.1571
162.963867 90.021 -12.1834
163.330078 90.020 -12.2098
163.696289 90.019 -12.2361
164.062500 90.018 -12.2624
164.428711 90.017 -12.2887
164.794922 90.016 -12.3150
165.161133 90.015 -12.3413
165.527344 90.014 -12.3675
165.893555 90.013 -12.3938
166.259766 90.012 -12.4201
166.625977 90.011 -12.4464
166.992188 90.010 -12.4727
167.358398 90.009 -12.4990
167.724609 90.008 -12.5254
168.090820 90.007 -12.5517
168.457031 90.006 -12.5780
168.823242 90.005 -12.6043
169.189453 90.004 -12.6306
169.555664 90.003 -12.6569
169.921875 90.002 -12.6832
170.288086 90.001 -12.7095
170.654297 90.000 -12.7357
171.020508 89.999 -12.7620
171.386719 89.998 -12.7882
171.752930 89.997 -12.8144
172.119141 89.996 -12.8406
172.485352 89.995 -12.8667
172.851562 89.994 -12.8929
173.217773 89.992 -12.9190
173.583984 89.991 -12.9451
173.950195 89.990 -12.9712
174.316406 89.989 -12.9973
174.682617 89.988 -13.0234
175.048828 89.987 -13.0495
175.415039 89.986 -13.0756
175.781250 89.985 -13.1017
176.147461 89.984 -13.1278
176.513672 89.983 -13.1539
176.879883 89.982 -13.1800
177.246094 89.981 -13.2062
177.612305 89.980 -13.2323
177.978516 89.978 -13.2584
178.344727 89.977 -13.2846
178.710938 89.976 -13.3107
179.077148 89.975 -13.3368
179.443359 89.974 -13.3629
179.809570 89.973 -13.3890
180.175781 89.972 -13.4151
180.541992 89.971 -13.4412
180.908203 89.970 -13.4672
181.274414 89.969 -13.4932
181.640625 89.968 -13.5192
182.006836 89.966 -13.5452
182.373047 89.965 -13.5712
182.739258 89.964 -13.5972
183.105469 89.963 -13.6231
183.471680 89.962 -13.6490
183.837891 89.961 -13.6750
184.204102 89.960 -13.7009
184.570312 89.959 -13.7268
184.936523 89.958 -13.7527
185.302734 89.956 -13.7787
185.668945 89.955 -13.8046
186.035156 89.954 -13.8305
186.401367 89.953 -13.8564
186.767578 89.952 -13.8824
187.133789 89.951 -13.9083
187.500000 89.950 -13.9342
187.866211 89.948 -13.9601
188.232422 89.947 -13.9860
188.598633 89.946 -14.0119
188.964844 89.945 -14.0378
189.331055 89.944 -14.0637
189.697266 89.943 -14.0896
190.063477 89.942 -14.1155
190.429688 89.940 -14.1413
190.795898 89.939 -14.1672
191.162109 89.938 -14.1930
191.528320 89.937 -14.2188
191.894531 89.936 -14.2446
192.260742 89.935 -14.2705
192.626953 89.934 -14.2963
192.993164 89.932 -14.3220
193.359375 89.931 -14.3478
193.725586 89.930 -14.3736
194.091797 89.929 -14.3993
194.458008 89.928 -14.4251
194.824219 89.927 -14.4508
195.190430 89.925 -14.4765
195.556641 89.924 -14.5022
195.922852 89.923 -14.5280
196.289062 89.922 -14.5537
196.655273 89.921 -14.5793
197.021484 89.919 -14.6050
197.387695 89.918 -14.6307
197.753906 89.917 -14.6564
198.120117 89.916 -14.6821
198.486328 89.915 -14.7078
198.852539 89.913 -14.7334
199.218750 89.912 -14.7591
199.584961 89.911 -14.7848
199.951172 89.910 -14.8105
200.317383 89.909 -14.8361
200.683594 89.907 -14.8618
201.049805 89.906 -14.8874
201.416016 89.905 -14.9131
201.782227 89.904 -14.9387
202.148438 89.903 -14.9643
202.514648 89.901 -14.9900
202.880859 89.900 -15.0156
203.247070 89.899 -15.0411
203.613281 89.898 -15.0667
203.979492 89.897 -15.0922
204.345703 89.895 -15.1178
204.711914 89.894 -15.1433
205.078125 89.893 -15.1688
205.444336 89.892 -15.1943
205.810547 89.891 -15.2198
206.176758 89.889 -15.2453
206.542969 89.888 -15.2707
206.909180 89.887 -15.2962
207.275391 89.886 -15.3217
207.641602 89.884 -15.3471
208.007812 89.883 -15.3726
208.374023 89.882 -15.3981
208.740234 89.881 -15.4236
209.106445 89.879 -15.4490
209.472656 89.878 -15.4745
209.838867 89.877 -15.5000
210.205078 89.876 -15.5254
210.571289 89.874 -15.5509
210.937500 89.873 -15.5763
211.303711 89.872 -15.6018
211.669922 89.871 -15.6272
212.036133 89.869 -15.6526
212.402344 89.868 -15.6780
212.768555 89.867 -15.7034
213.134766 89.866 -15.7287
213.500977 89.864 -15.7541
213.867188 89.863 -15.7794
214.233398 89.862 -15.8047
214.599609 89.860 -15.8300
214.965820 89.859 -15.8553
215.332031 89.858 -15.8806
215.698242 89.857 -15.9059
216.064453 89.855 -15.9312
216.430664 89.854 -15.9564
216.796875 89.853 -15.9817
217.163086 89.851 -16.0070
217.529297 89.850 -16.0322
217.895508 89.849 -16.0575
218.261719 89.848 -16.0828
218.627930 89.846 -16.1080
218.994141 89.845 -16.1332
219.360352 89.844 -16.1585
219.726562 89.842 -16.1837
220.092773 89.841 -16.2089
220.458984 89.840 -16.2342
220.825195 89.839 -16.2594
221.191406 89.837 -16.2846
221.557617 89.836 -16.3098
221.923828 89.835 -16.3349
222.290039 89.833 -16.3601
222.656250 89.832 -16.3853
223.022461 89.831 -16.4104
223.388672 89.829 -16.4356
223.754883 89.828 -16.4607
224.121094 89.827 -16.4858
224.487305 89.825 -16.5109
224.853516 89.824 -16.5360
225.219727 89.823 -16.5611
225.585938 89.821 -16.5862
225.952148 89.820 -16.6113
226.318359 89.819 -16.6363
226.684570 89.817 -16.6614
227.050781 89.816 -16.6864
227.416992 89.815 -16.7115
227.783203 89.813 -16.7365
228.149414 89.812 -16.7615
228.515625 89.811 -16.7865
228.881836 89.809 -16.8115
229.248047 89.808 -16.8365
229.614258 89.807 -16.8615
229.980469 89.805 -16.8865
230.346680 89.804 -16.9114
230.712891 89.803 -16.9364
231.079102 89.801 -16.9614
231.445312 89.800 -16.9864
231.811523 89.799 -17.0113
232.177734 89.797 -17.0363
232.543945 89.796 -17.0612
232.910156 89.795 -17.0862
233.276367 89.793 -17.1111
233.642578 89.792 -17.1360
234.008789 89.790 -17.1609
234.375000 89.789 -17.1858
234.741211 89.788 -17.2107
235.107422 89.786 -17.2356
235.473633 89.785 -17.2605
235.839844 89.784 -17.2853
236.206055 89.782 -17.3101
236.572266 89.781 -17.3349
236.938477 89.780 -17.3598
237.304688 89.778 -17.3846
237.670898 89.777 -17.4093
238.037109 89.775 -17.4341
238.403320 89.774 -17.4589
238.769531 89.773 -17.4837
239.135742 89.771 -17.5084
239.501953 89.770 -17.5332
239.868164 89.768 -17.5579
240.234375 89.767 -17.5827
240.600586 89.766 -17.6074
240.966797 89.764 -17.6322
241.333008 89.763 -17.6569
241.699219 89.761 -17.6816
242.065430 89.760 -17.7064
242.431641 89.759 -17.7311
242.797852 89.757 -17.7558
243.164062 89.756 -17.7805
243.530273 89.754 -17.8052
243.896484 89.753 -17.8299
244.262695 89.752 -17.8545
244.628906 89.750 -17.8792
244.995117 89.749 -17.9038
245.361328 89.747 -17.9284
245.727539 89.746 -17.9531
246.093750 89.744 -17.9777
246.459961 89.743 -18.0022
246.826172 89.742 -18.0268
247.192383 89.740 -18.0514
247.558594 89.739 -18.0759
247.924805 89.737 -18.1005
248.291016 89.736 -18.1250
248.657227 89.734 -18.1496
249.023438 89.733 -18.1741
249.389648 89.732 -18.1986
249.755859 89.730 -18.2232
250.122070 89.729 -18.2477
250.488281 89.727 -18.2722
250.854492 89.726 -18.2967
251.220703 89.724 -18.3212
251.586914 89.723 -18.3457
251.953125 89.721 -18.3701
252.319336 89.720 -18.3946
252.685547 89.719 -18.4191
253.051758 89.717 -18.4435
253.417969 89.716 -18.4680
253.784180 89.714 -18.4924
254.150391 89.713 -18.5168
254.516602 89.711 -18.5413
254.882812 89.710 -18.5657
255.249023 89.708 -18.5901
255.615234 89.707 -18.6144
255.981445 89.705 -18.6388
256.347656 89.704 -18.6632
256.713867 89.703 -18.6875
257.080078 89.701 -18.7119
257.446289 89.700 -18.7362
257.812500 89.698 -18.7605
258.178711 89.697 -18.7848
258.544922 89.695 -18.8091
258.911133 89.694 -18.8334
259.277344 89.692 -18.8577
259.643555 89.691 -18.8820
260.009766 89.689 -18.9062
260.375977 89.688 -18.9305
260.742188 89.686 -18.9547
261.108398 89.685 -18.9790
261.474609 89.683 -19.0032
261.840820 89.682 -19.0274
262.207031 89.680 -19.0517
262.573242 89.679 -19.0759
262.939453 89.677 -19.1001
263.305664 89.676 -19.1243
263.671875 89.674 -19.1485
264.038086 89.673 -19.1727
264.404297 89.671 -19.1968
264.770508 89.670 -19.2210
265.136719 89.668 -19.2452
265.502930 89.667 -19.2693
265.869141 89.665 -19.2935
266.235352 89.664 -19.3176
266.601562 89.662 -19.3417
266.967773 89.661 -19.3658
267.333984 89.659 -19.3899
267.700195 89.658 -19.4140
268.066406 89.656 -19.4381
268.432617 89.655 -19.4621
268.798828 89.653 -19.4861
269.165039 89.652 -19.5102
269.531250 89.650 -19.5342
269.897461 89.649 -19.5582
270.263672 89.647 -19.5822
270.629883 89.646 -19.6062
270.996094 89.644 -19.6302
271.362305 89.643 -19.6542
271.728516 89.641 -19.6782
272.094727 89.639 -19.7022
272.460938 89.638 -19.7261
272.827148 89.636 -19.7501
273.193359 89.635 -19.7740
273.559570 89.633 -19.7980
273.925781 89.632 -19.8219
274.291992 89.630 -19.8459
274.658203 89.629 -19.8698
275.024414 89.627 -19.8937
275.390625 89.626 -19.9176
275.756836 89.624 -19.9415
276.123047 89.622 -19.9654
276.489258 89.621 -19.9892
276.855469 89.619 -20.0131
277.221680 89.618 -20.0369
277.587891 89.616 -20.0608
277.954102 89.615 -20.0846
278.320312 89.613 -20.1084
278.686523 89.612 -20.1322
279.052734 89.610 -20.1560
279.418945 89.608 -20.1797
279.785156 89.607 -20.2035
280.151367 89.605 -20.2273
280.517578 89.604 -20.2510
280.883789 89.602 -20.2748
281.250000 89.601 -20.2985
281.616211 89.599 -20.3223
281.982422 89.597 -20.3460
282.348633 89.596 -20.3697
282.714844 89.594 -20.3934
283.081055 89.593 -20.4171
283.447266 89.591 -20.4408
283.813477 89.590 -20.4645
284.179688 89.588 -20.4882
284.545898 89.586 -20.5118
284.912109 89.585 -20.5355
285.278320 89.583 -20.5591
285.644531 89.582 -20.5828
286.010742 89.580 -20.6064
286.376953 89.578 -20.6300
286.743164 89.577 -20.6536
287.109375 89.575 -20.6772
287.475586 89.574 -20.7008
287.841797 89.572 -20.7243
288.208008 89.571 -20.7479
288.574219 89.569 -20.7715
288.940430 89.567 -20.7950
289.306641 89.566 -20.8185
289.672852 89.564 -20.8421
290.039062 89.562 -20.8656
290.405273 89.561 -20.8891
290.771484 89.559 -20.9126
291.137695 89.558 -20.9360
291.503906 89.556 -20.9595
291.870117 89.554 -20.9830
292.236328 89.553 -21.0064
292.602539 89.551 -21.0299
292.968750 89.550 -21.0533
293.334961 89.548 -21.0767
293.701172 89.546 -21.1002
294.067383 89.545 -21.1236
294.433594 89.543 -21.1470
294.799805 89.541 -21.1704
295.166016 89.540 -21.1938
295.532227 89.538 -21.2171
295.898438 89.537 -21.2405
296.264648 89.535 -21.2639
296.630859 89.533 -21.2872
296.997070 89.532 -21.3106
297.363281 89.530 -21.3339
297.729492 89.528 -21.3572
