* Freq(Hz) SPL(dB) Phase(degrees)
20.141602 86.133 -2.1277
20.507812 86.149 -2.0060
20.874023 86.153 -1.8494
21.240234 86.150 -1.6982
21.606445 86.142 -1.5810
21.972656 86.129 -1.5086
22.338867 86.111 -1.4778
22.705078 86.092 -1.4810
23.071289 86.073 -1.5131
23.437500 86.057 -1.5729
23.803711 86.045 -1.6589
24.169922 86.035 -1.7661
24.536133 86.030 -1.8852
24.902344 86.027 -2.0058
25.268555 86.028 -2.1195
25.634766 86.033 -2.2219
26.000977 86.040 -2.3108
26.367188 86.049 -2.3846
26.733398 86.059 -2.4414
27.099609 86.069 -2.4798
27.465820 86.078 -2.4999
27.832031 86.086 -2.5040
28.198242 86.093 -2.4958
28.564453 86.098 -2.4795
28.930664 86.101 -2.4587
29.296875 86.102 -2.4366
29.663086 86.100 -2.4165
30.029297 86.097 -2.4015
30.395508 86.092 -2.3941
30.761719 86.087 -2.3965
31.127930 86.080 -2.4098
31.494141 86.074 -2.4343
31.860352 86.067 -2.4695
32.226562 86.061 -2.5146
32.592773 86.056 -2.5677
32.958984 86.053 -2.6270
33.325195 86.050 -2.6900
33.691406 86.049 -2.7543
34.057617 86.049 -2.8179
34.423828 86.051 -2.8787
34.790039 86.053 -2.9348
35.156250 86.056 -2.9848
35.522461 86.060 -3.0278
35.888672 86.064 -3.0635
36.254883 86.068 -3.0920
36.621094 86.072 -3.1140
36.987305 86.075 -3.1304
37.353516 86.077 -3.1424
37.719727 86.078 -3.1513
38.085938 86.079 -3.1588
38.452148 86.079 -3.1664
38.818359 86.077 -3.1754
39.184570 86.076 -3.1871
39.550781 86.073 -3.2025
39.916992 86.070 -3.2222
40.283203 86.067 -3.2466
40.649414 86.064 -3.2758
41.015625 86.061 -3.3095
41.381836 86.059 -3.3472
41.748047 86.056 -3.3880
42.114258 86.055 -3.4313
42.480469 86.053 -3.4759
42.846680 86.053 -3.5209
43.212891 86.053 -3.5653
43.579102 86.053 -3.6083
43.945312 86.054 -3.6491
44.311523 86.056 -3.6872
44.677734 86.057 -3.7223
45.043945 86.058 -3.7545
45.410156 86.060 -3.7836
45.776367 86.061 -3.8100
46.142578 86.062 -3.8341
46.508789 86.063 -3.8565
46.875000 86.063 -3.8777
47.241211 86.063 -3.8984
47.607422 86.063 -3.9191
47.973633 86.062 -3.9405
48.339844 86.061 -3.9631
48.706055 86.060 -3.9871
49.072266 86.059 -4.0128
49.438477 86.057 -4.0404
49.804688 86.056 -4.0698
50.170898 86.054 -4.1010
50.537109 86.053 -4.1337
50.903320 86.052 -4.1676
51.269531 86.051 -4.2024
51.635742 86.050 -4.2377
52.001953 86.050 -4.2732
52.368164 86.049 -4.3085
52.734375 86.049 -4.3433
53.100586 86.049 -4.3774
53.466797 86.049 -4.4106
53.833008 86.049 -4.4429
54.199219 86.050 -4.4740
54.565430 86.050 -4.5042
54.931641 86.050 -4.5335
55.297852 86.050 -4.5620
55.664062 86.050 -4.5899
56.030273 86.050 -4.6174
56.396484 86.050 -4.6446
56.762695 86.049 -4.6717
57.128906 86.049 -4.6990
57.495117 86.048 -4.7264
57.861328 86.048 -4.7542
58.227539 86.047 -4.7825
58.593750 86.046 -4.8111
58.959961 86.046 -4.8402
59.326172 86.045 -4.8698
59.692383 86.044 -4.8997
60.058594 86.044 -4.9300
60.424805 86.043 -4.9606
60.791016 86.042 -4.9914
61.157227 86.042 -5.0223
61.523438 86.041 -5.0533
61.889648 86.041 -5.0844
62.255859 86.040 -5.1154
62.622070 86.040 -5.1464
62.988281 86.039 -5.1774
63.354492 86.039 -5.2082
63.720703 86.038 -5.2389
64.086914 86.038 -5.2695
64.453125 86.038 -5.2999
64.819336 86.037 -5.3303
65.185547 86.037 -5.3604
65.551758 86.036 -5.3904
65.917969 86.036 -5.4203
66.284180 86.036 -5.4500
66.650391 86.035 -5.4795
67.016602 86.035 -5.5089
67.382812 86.035 -5.5382
67.749023 86.034 -5.5673
68.115234 86.034 -5.5963
68.481445 86.033 -5.6252
68.847656 86.033 -5.6541
69.213867 86.032 -5.6830
69.580078 86.032 -5.7120
69.946289 86.031 -5.7410
70.312500 86.030 -5.7702
70.678711 86.030 -5.7996
71.044922 86.029 -5.8291
71.411133 86.028 -5.8589
71.777344 86.028 -5.8889
72.143555 86.027 -5.9191
72.509766 86.026 -5.9496
72.875977 86.026 -5.9802
73.242188 86.025 -6.0109
73.608398 86.025 -6.0418
73.974609 86.024 -6.0726
74.340820 86.023 -6.1034
74.707031 86.023 -6.1341
75.073242 86.023 -6.1646
75.439453 86.022 -6.1950
75.805664 86.022 -6.2252
76.171875 86.021 -6.2550
76.538086 86.021 -6.2847
76.904297 86.020 -6.3141
77.270508 86.020 -6.3433
77.636719 86.020 -6.3723
78.002930 86.019 -6.4012
78.369141 86.018 -6.4300
78.735352 86.018 -6.4588
79.101562 86.017 -6.4876
79.467773 86.017 -6.5165
79.833984 86.016 -6.5455
80.200195 86.015 -6.5747
80.566406 86.015 -6.6040
80.932617 86.014 -6.6336
81.298828 86.013 -6.6634
81.665039 86.012 -6.6934
82.031250 86.012 -6.7235
82.397461 86.011 -6.7538
82.763672 86.010 -6.7841
83.129883 86.010 -6.8145
83.496094 86.009 -6.8449
83.862305 86.008 -6.8753
84.228516 86.008 -6.9056
84.594727 86.007 -6.9358
84.960938 86.007 -6.9659
85.327148 86.006 -6.9958
85.693359 86.006 -7.0256
86.059570 86.005 -7.0552
86.425781 86.005 -7.0847
86.791992 86.004 -7.1140
87.158203 86.003 -7.1433
87.524414 86.003 -7.1725
87.890625 86.002 -7.2016
88.256836 86.002 -7.2308
88.623047 86.001 -7.2599
88.989258 86.000 -7.2891
89.355469 85.999 -7.3184
89.721680 85.999 -7.3477
90.087891 85.998 -7.3771
90.454102 85.997 -7.4065
90.820312 85.997 -7.4361
91.186523 85.996 -7.4657
91.552734 85.995 -7.4953
91.918945 85.994 -7.5250
92.285156 85.994 -7.5548
92.651367 85.993 -7.5846
93.017578 85.992 -7.6143
93.383789 85.992 -7.6441
93.750000 85.991 -7.6739
94.116211 85.990 -7.7036
94.482422 85.990 -7.7334
94.848633 85.989 -7.7631
95.214844 85.988 -7.7928
95.581055 85.988 -7.8224
95.947266 85.987 -7.8521
96.313477 85.986 -7.8816
96.679688 85.985 -7.9112
97.045898 85.985 -7.9407
97.412109 85.984 -7.9702
97.778320 85.983 -7.9997
98.144531 85.983 -8.0291
98.510742 85.982 -8.0585
98.876953 85.981 -8.0878
99.243164 85.981 -8.1171
99.609375 85.980 -8.1463
99.975586 85.979 -8.1756
100.341797 85.978 -8.2048
100.708008 85.978 -8.2340
101.074219 85.977 -8.2633
101.440430 85.976 -8.2925
101.806641 85.975 -8.3218
102.172852 85.975 -8.3511
102.539062 85.974 -8.3804
102.905273 85.973 -8.4098
103.271484 85.972 -8.4392
103.637695 85.971 -8.4687
104.003906 85.971 -8.4983
104.370117 85.970 -8.5279
104.736328 85.969 -8.5575
105.102539 85.968 -8.5872
105.468750 85.967 -8.6168
105.834961 85.967 -8.6465
106.201172 85.966 -8.6761
106.567383 85.965 -8.7057
106.933594 85.964 -8.7352
107.299805 85.964 -8.7646
107.666016 85.963 -8.7941
108.032227 85.962 -8.8234
108.398438 85.961 -8.8526
108.764648 85.961 -8.8818
109.130859 85.960 -8.9109
109.497070 85.959 -8.9400
109.863281 85.958 -8.9690
110.229492 85.958 -8.9980
110.595703 85.957 -9.0271
110.961914 85.956 -9.0561
111.328125 85.955 -9.0851
111.694336 85.954 -9.1142
112.060547 85.953 -9.1434
112.426758 85.953 -9.1726
112.792969 85.952 -9.2018
113.159180 85.951 -9.2311
113.525391 85.950 -9.2605
113.891602 85.949 -9.2899
114.257812 85.948 -9.3194
114.624023 85.947 -9.3488
114.990234 85.947 -9.3783
115.356445 85.946 -9.4077
115.722656 85.945 -9.4371
116.088867 85.944 -9.4665
116.455078 85.943 -9.4959
116.821289 85.942 -9.5252
117.187500 85.942 -9.5544
117.553711 85.941 -9.5836
117.919922 85.940 -9.6127
118.286133 85.939 -9.6418
118.652344 85.938 -9.6709
119.018555 85.937 -9.6999
119.384766 85.937 -9.7289
119.750977 85.936 -9.7579
120.117188 85.935 -9.7868
120.483398 85.934 -9.8158
120.849609 85.933 -9.8448
121.215820 85.932 -9.8738
121.582031 85.931 -9.9028
121.948242 85.930 -9.9319
122.314453 85.929 -9.9609
122.680664 85.929 -9.9900
123.046875 85.928 -10.0191
123.413086 85.927 -10.0483
123.779297 85.926 -10.0774
124.145508 85.925 -10.1066
124.511719 85.924 -10.1357
124.877930 85.923 -10.1648
125.244141 85.922 -10.1940
125.610352 85.921 -10.2231
125.976562 85.920 -10.2522
126.342773 85.919 -10.2813
126.708984 85.919 -10.3104
127.075195 85.918 -10.3394
127.441406 85.917 -10.3685
127.807617 85.916 -10.3975
128.173828 85.915 -10.4266
128.540039 85.914 -10.4555
128.906250 85.913 -10.4845
129.272461 85.912 -10.5135
129.638672 85.911 -10.5424
130.004883 85.910 -10.5714
130.371094 85.909 -10.6003
130.737305 85.908 -10.6292
131.103516 85.907 -10.6580
131.469727 85.906 -10.6869
131.835938 85.906 -10.7157
132.202148 85.905 -10.7446
132.568359 85.904 -10.7734
132.934570 85.903 -10.8022
133.300781 85.902 -10.8310
133.666992 85.901 -10.8599
134.033203 85.900 -10.8887
134.399414 85.899 -10.9176
134.765625 85.898 -10.9464
135.131836 85.897 -10.9753
135.498047 85.896 -11.0042
135.864258 85.895 -11.0332
136.230469 85.894 -11.0621
136.596680 85.893 -11.0910
136.962891 85.892 -11.1200
137.329102 85.891 -11.1489
137.695312 85.890 -11.1778
138.061523 85.889 -11.2068
138.427734 85.888 -11.2356
138.793945 85.887 -11.2645
139.160156 85.886 -11.2933
139.526367 85.885 -11.3221
139.892578 85.884 -11.3509
140.258789 85.883 -11.3796
140.625000 85.882 -11.4083
140.991211 85.881 -11.4370
141.357422 85.880 -11.4656
141.723633 85.879 -11.4942
142.089844 85.878 -11.5228
142.456055 85.877 -11.5514
142.822266 85.876 -11.5800
143.188477 85.875 -11.6086
143.554688 85.874 -11.6373
143.920898 85.873 -11.6659
144.287109 85.872 -11.6946
144.653320 85.871 -11.7233
145.019531 85.870 -11.7520
145.385742 85.868 -11.7807
145.751953 85.867 -11.8094
146.118164 85.866 -11.8382
146.484375 85.865 -11.8669
146.850586 85.864 -11.8957
147.216797 85.863 -11.9244
147.583008 85.862 -11.9531
147.949219 85.861 -11.9818
148.315430 85.860 -12.0105
148.681641 85.859 -12.0391
149.047852 85.858 -12.0677
149.414062 85.857 -12.0963
149.780273 85.856 -12.1249
150.146484 85.855 -12.1534
150.512695 85.854 -12.1819
150.878906 85.853 -12.2104
151.245117 85.852 -12.2388
151.611328 85.851 -12.2673
151.977539 85.849 -12.2958
152.343750 85.848 -12.3242
152.709961 85.847 -12.3527
153.076172 85.846 -12.3811
153.442383 85.845 -12.4096
153.808594 85.844 -12.4380
154.174805 85.843 -12.4665
154.541016 85.842 -12.4950
154.907227 85.841 -12.5235
155.273438 85.840 -12.5520
155.639648 85.838 -12.5805
156.005859 85.837 -12.6089
156.372070 85.836 -12.6374
156.738281 85.835 -12.6659
157.104492 85.834 -12.6943
157.470703 85.833 -12.7228
157.836914 85.832 -12.7512
158.203125 85.831 -12.7797
158.569336 85.829 -12.8081
158.935547 85.828 -12.8365
159.301758 85.827 -12.8649
159.667969 85.826 -12.8933
160.034180 85.825 -12.9216
160.400391 85.824 -12.9500
160.766602 85.823 -12.9783
161.132812 85.822 -13.0067
161.499023 85.820 -13.0350
161.865234 85.819 -13.0633
162.231445 85.818 -13.0915
162.597656 85.817 -13.1198
162.963867 85.816 -13.1481
163.330078 85.815 -13.1763
163.696289 85.814 -13.2045
164.062500 85.812 -13.2328
164.428711 85.811 -13.2610
164.794922 85.810 -13.2892
165.161133 85.809 -13.3174
165.527344 85.808 -13.3456
165.893555 85.806 -13.3738
166.259766 85.805 -13.4021
166.625977 85.804 -13.4303
166.992188 85.803 -13.4585
167.358398 85.802 -13.4867
167.724609 85.801 -13.5149
168.090820 85.799 -13.5432
168.457031 85.798 -13.5714
168.823242 85.797 -13.5996
169.189453 85.796 -13.6278
169.555664 85.795 -13.6560
169.921875 85.793 -13.6842
170.288086 85.792 -13.7124
170.654297 85.791 -13.7405
171.020508 85.790 -13.7687
171.386719 85.789 -13.7968
171.752930 85.787 -13.8249
172.119141 85.786 -13.8529
172.485352 85.785 -13.8810
172.851562 85.784 -13.9090
173.217773 85.783 -13.9370
173.583984 85.781 -13.9650
173.950195 85.780 -13.9930
174.316406 85.779 -14.0210
174.682617 85.778 -14.0489
175.048828 85.776 -14.0769
175.415039 85.775 -14.1049
175.781250 85.774 -14.1328
176.147461 85.773 -14.1608
176.513672 85.772 -14.1888
176.879883 85.770 -14.2168
177.246094 85.769 -14.2448
177.612305 85.768 -14.2728
177.978516 85.767 -14.3008
178.344727 85.765 -14.3288
178.710938 85.764 -14.3568
179.077148 85.763 -14.3848
179.443359 85.762 -14.4128
179.809570 85.760 -14.4407
180.175781 85.759 -14.4687
180.541992 85.758 -14.4966
180.908203 85.757 -14.5245
181.274414 85.755 -14.5523
181.640625 85.754 -14.5802
182.006836 85.753 -14.6080
182.373047 85.751 -14.6358
182.739258 85.750 -14.6636
183.105469 85.749 -14.6914
183.471680 85.748 -14.7192
183.837891 85.746 -14.7470
184.204102 85.745 -14.7747
184.570312 85.744 -14.8025
184.936523 85.743 -14.8302
185.302734 85.741 -14.8580
185.668945 85.740 -14.8858
186.035156 85.739 -14.9135
186.401367 85.737 -14.9413
186.767578 85.736 -14.9690
187.133789 85.735 -14.9968
187.500000 85.733 -15.0245
187.866211 85.732 -15.0523
188.232422 85.731 -15.0800
188.598633 85.729 -15.1077
188.964844 85.728 -15.1354
189.331055 85.727 -15.1631
189.697266 85.726 -15.1908
190.063477 85.724 -15.2185
190.429688 85.723 -15.2462
190.795898 85.722 -15.2738
191.162109 85.720 -15.3015
191.528320 85.719 -15.3291
191.894531 85.718 -15.3567
192.260742 85.716 -15.3843
192.626953 85.715 -15.4119
192.993164 85.714 -15.4395
193.359375 85.712 -15.4671
193.725586 85.711 -15.4946
194.091797 85.710 -15.5222
194.458008 85.708 -15.5497
194.824219 85.707 -15.5772
195.190430 85.706 -15.6047
195.556641 85.704 -15.6322
195.922852 85.703 -15.6597
196.289062 85.702 -15.6872
196.655273 85.700 -15.7147
197.021484 85.699 -15.7421
197.387695 85.697 -15.7696
197.753906 85.696 -15.7971
198.120117 85.695 -15.8245
198.486328 85.693 -15.8520
198.852539 85.692 -15.8794
199.218750 85.691 -15.9069
199.584961 85.689 -15.9343
199.951172 85.688 -15.9617
200.317383 85.686 -15.9892
200.683594 85.685 -16.0166
201.049805 85.684 -16.0440
201.416016 85.682 -16.0714
201.782227 85.681 -16.0988
202.148438 85.680 -16.1262
202.514648 85.678 -16.1536
202.880859 85.677 -16.1809
203.247070 85.675 -16.2083
203.613281 85.674 -16.2356
203.979492 85.673 -16.2629
204.345703 85.671 -16.2901
204.711914 85.670 -16.3174
205.078125 85.668 -16.3447
205.444336 85.667 -16.3719
205.810547 85.666 -16.3991
206.176758 85.664 -16.4263
206.542969 85.663 -16.4535
206.909180 85.661 -16.4807
207.275391 85.660 -16.5079
207.641602 85.659 -16.5351
208.007812 85.657 -16.5623
208.374023 85.656 -16.5895
208.740234 85.654 -16.6167
209.106445 85.653 -16.6439
209.472656 85.651 -16.6711
209.838867 85.650 -16.6983
210.205078 85.649 -16.7255
210.571289 85.647 -16.7527
210.937500 85.646 -16.7798
211.303711 85.644 -16.8070
211.669922 85.643 -16.8341
212.036133 85.641 -16.8612
212.402344 85.640 -16.8883
212.768555 85.638 -16.9154
213.134766 85.637 -16.9425
213.500977 85.636 -16.9695
213.867188 85.634 -16.9966
214.233398 85.633 -17.0236
214.599609 85.631 -17.0506
214.965820 85.630 -17.0776
215.332031 85.628 -17.1046
215.698242 85.627 -17.1315
216.064453 85.625 -17.1585
216.430664 85.624 -17.1855
216.796875 85.622 -17.2125
217.163086 85.621 -17.2394
217.529297 85.620 -17.2663
217.895508 85.618 -17.2933
218.261719 85.617 -17.3202
218.627930 85.615 -17.3471
218.994141 85.614 -17.3741
219.360352 85.612 -17.4010
219.726562 85.611 -17.4279
220.092773 85.609 -17.4548
220.458984 85.608 -17.4817
220.825195 85.606 -17.5086
221.191406 85.605 -17.5354
221.557617 85.603 -17.5623
221.923828 85.602 -17.5891
222.290039 85.600 -17.6159
222.656250 85.599 -17.6428
223.022461 85.597 -17.6696
223.388672 85.596 -17.6964
223.754883 85.594 -17.7232
224.121094 85.593 -17.7499
224.487305 85.591 -17.7767
224.853516 85.590 -17.8034
225.219727 85.588 -17.8302
225.585938 85.587 -17.8569
225.952148 85.585 -17.8836
226.318359 85.584 -17.9103
226.684570 85.582 -17.9370
227.050781 85.581 -17.9637
227.416992 85.579 -17.9904
227.783203 85.578 -18.0170
228.149414 85.576 -18.0437
228.515625 85.574 -18.0703
228.881836 85.573 -18.0970
229.248047 85.571 -18.1236
229.614258 85.570 -18.1502
229.980469 85.568 -18.1768
230.346680 85.567 -18.2034
230.712891 85.565 -18.2300
231.079102 85.564 -18.2566
231.445312 85.562 -18.2832
231.811523 85.561 -18.3098
232.177734 85.559 -18.3363
232.543945 85.557 -18.3629
232.910156 85.556 -18.3894
233.276367 85.554 -18.4160
233.642578 85.553 -18.4425
234.008789 85.551 -18.4690
234.375000 85.550 -18.4955
234.741211 85.548 -18.5220
235.107422 85.547 -18.5485
235.473633 85.545 -18.5749
235.839844 85.543 -18.6014
236.206055 85.542 -18.6278
236.572266 85.540 -18.6542
236.938477 85.539 -18.6806
237.304688 85.537 -18.7070
237.670898 85.536 -18.7334
238.037109 85.534 -18.7597
238.403320 85.532 -18.7861
238.769531 85.531 -18.8124
239.135742 85.529 -18.8388
239.501953 85.528 -18.8651
239.868164 85.526 -18.8914
240.234375 85.524 -18.9178
240.600586 85.523 -18.9441
240.966797 85.521 -18.9704
241.333008 85.520 -18.9967
241.699219 85.518 -19.0230
242.065430 85.517 -19.0493
242.431641 85.515 -19.0756
242.797852 85.513 -19.1019
243.164062 85.512 -19.1281
243.530273 85.510 -19.1544
243.896484 85.508 -19.1806
244.262695 85.507 -19.2069
244.628906 85.505 -19.2330
244.995117 85.504 -19.2592
245.361328 85.502 -19.2854
245.727539 85.500 -19.3116
246.093750 85.499 -19.3377
246.459961 85.497 -19.3638
246.826172 85.496 -19.3900
247.192383 85.494 -19.4161
247.558594 85.492 -19.4422
247.924805 85.491 -19.4682
248.291016 85.489 -19.4943
248.657227 85.487 -19.5204
249.023438 85.486 -19.5465
249.389648 85.484 -19.5725
249.755859 85.483 -19.5986
250.122070 85.481 -19.6246
250.488281 85.479 -19.6506
250.854492 85.478 -19.6767
251.220703 85.476 -19.7027
251.586914 85.474 -19.7287
251.953125 85.473 -19.7547
252.319336 85.471 -19.7807
252.685547 85.469 -19.8067
253.051758 85.468 -19.8326
253.417969 85.466 -19.8586
253.784180 85.464 -19.8845
254.150391 85.463 -19.9105
254.516602 85.461 -19.9364
254.882812 85.459 -19.9623
255.249023 85.458 -19.9882
255.615234 85.456 -20.0140
255.981445 85.454 -20.0399
256.347656 85.453 -20.0658
256.713867 85.451 -20.0916
257.080078 85.449 -20.1175
257.446289 85.448 -20.1433
257.812500 85.446 -20.1691
258.178711 85.444 -20.1949
258.544922 85.443 -20.2207
258.911133 85.441 -20.2465
259.277344 85.439 -20.2722
259.643555 85.438 -20.2980
260.009766 85.436 -20.3237
260.375977 85.434 -20.3495
260.742188 85.433 -20.3752
261.108398 85.431 -20.4009
261.474609 85.429 -20.4266
261.840820 85.427 -20.4523
262.207031 85.426 -20.4780
262.573242 85.424 -20.5036
262.939453 85.422 -20.5293
263.305664 85.421 -20.5550
263.671875 85.419 -20.5806
264.038086 85.417 -20.6063
264.404297 85.416 -20.6319
264.770508 85.414 -20.6575
265.136719 85.412 -20.6831
265.502930 85.410 -20.7087
265.869141 85.409 -20.7343
266.235352 85.407 -20.7599
266.601562 85.405 -20.7855
266.967773 85.404 -20.8110
267.333984 85.402 -20.8365
267.700195 85.400 -20.8621
268.066406 85.398 -20.8876
268.432617 85.397 -20.9131
268.798828 85.395 -20.9385
269.165039 85.393 -20.9640
269.531250 85.392 -20.9895
269.897461 85.390 -21.0149
270.263672 85.388 -21.0403
270.629883 85.386 -21.0658
270.996094 85.385 -21.0912
271.362305 85.383 -21.1166
271.728516 85.381 -21.1420
272.094727 85.379 -21.1674
272.460938 85.378 -21.1928
272.827148 85.376 -21.2181
273.193359 85.374 -21.2435
273.559570 85.372 -21.2689
273.925781 85.371 -21.2942
274.291992 85.369 -21.3195
274.658203 85.367 -21.3449
275.024414 85.365 -21.3702
275.390625 85.364 -21.3955
275.756836 85.362 -21.4208
276.123047 85.360 -21.4460
276.489258 85.358 -21.4713
276.855469 85.357 -21.4966
277.221680 85.355 -21.5218
277.587891 85.353 -21.5470
277.954102 85.351 -21.5722
278.320312 85.349 -21.5974
278.686523 85.348 -21.6226
279.052734 85.346 -21.6478
279.418945 85.344 -21.6729
279.785156 85.342 -21.6981
280.151367 85.341 -21.7232
280.517578 85.339 -21.7484
280.883789 85.337 -21.7735
281.250000 85.335 -21.7986
281.616211 85.333 -21.8237
281.982422 85.332 -21.8487
282.348633 85.330 -21.8738
282.714844 85.328 -21.8989
283.081055 85.326 -21.9240
283.447266 85.325 -21.9490
283.813477 85.323 -21.9741
284.179688 85.321 -21.9991
284.545898 85.319 -22.0241
284.912109 85.317 -22.0491
285.278320 85.316 -22.0742
285.644531 85.314 -22.0991
286.010742 85.312 -22.1241
286.376953 85.310 -22.1491
286.743164 85.308 -22.1740
287.109375 85.307 -22.1990
287.475586 85.305 -22.2239
287.841797 85.303 -22.2488
288.208008 85.301 -22.2737
288.574219 85.299 -22.2986
288.940430 85.297 -22.3234
289.306641 85.296 -22.3483
289.672852 85.294 -22.3732
290.039062 85.292 -22.3980
290.405273 85.290 -22.4229
290.771484 85.288 -22.4477
291.137695 85.287 -22.4725
291.503906 85.285 -22.4973
291.870117 85.283 -22.5220
292.236328 85.281 -22.5468
292.602539 85.279 -22.5716
292.968750 85.277 -22.5963
293.334961 85.276 -22.6210
293.701172 85.274 -22.6458
294.067383 85.272 -22.6705
294.433594 85.270 -22.6952
294.799805 85.268 -22.7199
295.166016 85.266 -22.7446
295.532227 85.265 -22.7693
295.898438 85.263 -22.7940
296.264648 85.261 -22.8186
296.630859 85.259 -22.8433
296.997070 85.257 -22.8679
297.363281 85.255 -22.8925
