* Freq(Hz) SPL(dB) Phase(degrees)
20.141602 95.058 -0.0273
20.507812 95.074 0.1332
20.874023 95.078 0.3287
21.240234 95.076 0.5191
21.606445 95.068 0.6756
21.972656 95.055 0.7875
22.338867 95.038 0.8578
22.705078 95.019 0.8941
23.071289 95.000 0.9014
23.437500 94.984 0.8808
23.803711 94.972 0.8336
24.169922 94.963 0.7649
24.536133 94.957 0.6841
24.902344 94.954 0.6015
25.268555 94.956 0.5254
25.634766 94.960 0.4604
26.000977 94.968 0.4088
26.367188 94.977 0.3720
26.733398 94.987 0.3522
27.099609 94.997 0.3509
27.465820 95.007 0.3679
27.832031 95.015 0.4012
28.198242 95.023 0.4469
28.564453 95.028 0.5011
28.930664 95.031 0.5600
29.296875 95.032 0.6204
29.663086 95.031 0.6792
30.029297 95.029 0.7332
30.395508 95.024 0.7796
30.761719 95.019 0.8164
31.127930 95.013 0.8424
31.494141 95.006 0.8571
31.860352 95.000 0.8611
32.226562 94.995 0.8551
32.592773 94.990 0.8407
32.958984 94.986 0.8201
33.325195 94.984 0.7955
33.691406 94.983 0.7693
34.057617 94.983 0.7436
34.423828 94.985 0.7205
34.790039 94.988 0.7018
35.156250 94.991 0.6891
35.522461 94.995 0.6834
35.888672 95.000 0.6850
36.254883 95.004 0.6938
36.621094 95.008 0.7092
36.987305 95.011 0.7303
37.353516 95.014 0.7560
37.719727 95.016 0.7850
38.085938 95.017 0.8156
38.452148 95.017 0.8464
38.818359 95.017 0.8759
39.184570 95.015 0.9028
39.550781 95.013 0.9263
39.916992 95.011 0.9454
40.283203 95.008 0.9598
40.649414 95.005 0.9695
41.015625 95.003 0.9746
41.381836 95.000 0.9757
41.748047 94.999 0.9733
42.114258 94.997 0.9685
42.480469 94.996 0.9621
42.846680 94.996 0.9552
43.212891 94.996 0.9487
43.579102 94.997 0.9435
43.945312 94.998 0.9404
44.311523 95.000 0.9398
44.677734 95.002 0.9422
45.043945 95.004 0.9476
45.410156 95.006 0.9560
45.776367 95.007 0.9672
46.142578 95.009 0.9808
46.508789 95.010 0.9962
46.875000 95.011 1.0130
47.241211 95.011 1.0303
47.607422 95.012 1.0477
47.973633 95.011 1.0646
48.339844 95.011 1.0804
48.706055 95.010 1.0948
49.072266 95.009 1.1075
49.438477 95.008 1.1184
49.804688 95.007 1.1274
50.170898 95.006 1.1347
50.537109 95.006 1.1403
50.903320 95.005 1.1447
51.269531 95.004 1.1481
51.635742 95.004 1.1509
52.001953 95.004 1.1535
52.368164 95.004 1.1562
52.734375 95.004 1.1592
53.100586 95.005 1.1629
53.466797 95.005 1.1675
53.833008 95.006 1.1731
54.199219 95.007 1.1796
54.565430 95.007 1.1872
54.931641 95.008 1.1957
55.297852 95.009 1.2050
55.664062 95.009 1.2149
56.030273 95.010 1.2254
56.396484 95.010 1.2361
56.762695 95.010 1.2469
57.128906 95.010 1.2576
57.495117 95.010 1.2682
57.861328 95.010 1.2785
58.227539 95.010 1.2884
58.593750 95.010 1.2978
58.959961 95.010 1.3068
59.326172 95.010 1.3153
59.692383 95.010 1.3234
60.058594 95.010 1.3312
60.424805 95.009 1.3387
60.791016 95.009 1.3459
61.157227 95.009 1.3530
61.523438 95.009 1.3599
61.889648 95.009 1.3668
62.255859 95.009 1.3737
62.622070 95.010 1.3806
62.988281 95.010 1.3875
63.354492 95.010 1.3946
63.720703 95.010 1.4017
64.086914 95.010 1.4090
64.453125 95.010 1.4163
64.819336 95.011 1.4238
65.185547 95.011 1.4315
65.551758 95.011 1.4393
65.917969 95.011 1.4472
66.284180 95.012 1.4553
66.650391 95.012 1.4636
67.016602 95.012 1.4720
67.382812 95.012 1.4805
67.749023 95.013 1.4892
68.115234 95.013 1.4980
68.481445 95.013 1.5069
68.847656 95.013 1.5159
69.213867 95.013 1.5248
69.580078 95.013 1.5337
69.946289 95.013 1.5426
70.312500 95.013 1.5513
70.678711 95.013 1.5598
71.044922 95.013 1.5682
71.411133 95.013 1.5763
71.777344 95.013 1.5842
72.143555 95.013 1.5918
72.509766 95.013 1.5992
72.875977 95.013 1.6065
73.242188 95.014 1.6135
73.608398 95.014 1.6205
73.974609 95.014 1.6274
74.340820 95.014 1.6344
74.707031 95.014 1.6414
75.073242 95.014 1.6485
75.439453 95.015 1.6558
75.805664 95.015 1.6633
76.171875 95.015 1.6710
76.538086 95.015 1.6790
76.904297 95.016 1.6872
77.270508 95.016 1.6956
77.636719 95.016 1.7042
78.002930 95.017 1.7130
78.369141 95.017 1.7219
78.735352 95.017 1.7308
79.101562 95.017 1.7397
79.467773 95.017 1.7486
79.833984 95.017 1.7573
80.200195 95.017 1.7659
80.566406 95.017 1.7743
80.932617 95.017 1.7825
81.298828 95.017 1.7904
81.665039 95.017 1.7982
82.031250 95.017 1.8058
82.397461 95.018 1.8132
82.763672 95.018 1.8206
83.129883 95.018 1.8278
83.496094 95.018 1.8350
83.862305 95.018 1.8422
84.228516 95.018 1.8495
84.594727 95.018 1.8568
84.960938 95.019 1.8643
85.327148 95.019 1.8719
85.693359 95.019 1.8797
86.059570 95.019 1.8875
86.425781 95.020 1.8956
86.791992 95.020 1.9037
87.158203 95.020 1.9120
87.524414 95.020 1.9203
87.890625 95.021 1.9287
88.256836 95.021 1.9371
88.623047 95.021 1.9455
88.989258 95.021 1.9538
89.355469 95.021 1.9621
89.721680 95.021 1.9704
90.087891 95.021 1.9785
90.454102 95.022 1.9866
90.820312 95.022 1.9946
91.186523 95.022 2.0026
91.552734 95.022 2.0104
91.918945 95.022 2.0183
92.285156 95.022 2.0260
92.651367 95.022 2.0337
93.017578 95.023 2.0414
93.383789 95.023 2.0491
93.750000 95.023 2.0568
94.116211 95.023 2.0645
94.482422 95.023 2.0722
94.848633 95.023 2.0799
95.214844 95.024 2.0876
95.581055 95.024 2.0954
95.947266 95.024 2.1031
96.313477 95.024 2.1109
96.679688 95.024 2.1187
97.045898 95.025 2.1266
97.412109 95.025 2.1344
97.778320 95.025 2.1423
98.144531 95.025 2.1503
98.510742 95.026 2.1582
98.876953 95.026 2.1662
99.243164 95.026 2.1743
99.609375 95.026 2.1823
99.975586 95.026 2.1904
100.341797 95.027 2.1985
100.708008 95.027 2.2066
101.074219 95.027 2.2147
101.440430 95.027 2.2228
101.806641 95.027 2.2309
102.172852 95.027 2.2389
102.539062 95.028 2.2469
102.905273 95.028 2.2548
103.271484 95.028 2.2627
103.637695 95.028 2.2705
104.003906 95.028 2.2782
104.370117 95.028 2.2859
104.736328 95.029 2.2935
105.102539 95.029 2.3012
105.468750 95.029 2.3087
105.834961 95.029 2.3163
106.201172 95.029 2.3239
106.567383 95.030 2.3315
106.933594 95.030 2.3391
107.299805 95.030 2.3468
107.666016 95.030 2.3545
108.032227 95.031 2.3624
108.398438 95.031 2.3702
108.764648 95.031 2.3782
109.130859 95.031 2.3862
109.497070 95.031 2.3942
109.863281 95.032 2.4023
110.229492 95.032 2.4104
110.595703 95.032 2.4186
110.961914 95.032 2.4267
111.328125 95.033 2.4347
111.694336 95.033 2.4428
112.060547 95.033 2.4508
112.426758 95.033 2.4587
112.792969 95.033 2.4666
113.159180 95.033 2.4744
113.525391 95.034 2.4821
113.891602 95.034 2.4898
114.257812 95.034 2.4975
114.624023 95.034 2.5051
114.990234 95.034 2.5126
115.356445 95.035 2.5202
115.722656 95.035 2.5278
116.088867 95.035 2.5354
116.455078 95.035 2.5430
116.821289 95.035 2.5507
117.187500 95.036 2.5584
117.553711 95.036 2.5661
117.919922 95.036 2.5739
118.286133 95.036 2.5818
118.652344 95.037 2.5897
119.018555 95.037 2.5976
119.384766 95.037 2.6055
119.750977 95.037 2.6135
120.117188 95.038 2.6214
120.483398 95.038 2.6294
120.849609 95.038 2.6373
121.215820 95.038 2.6452
121.582031 95.039 2.6531
121.948242 95.039 2.6609
122.314453 95.039 2.6688
122.680664 95.039 2.6766
123.046875 95.039 2.6843
123.413086 95.040 2.6921
123.779297 95.040 2.6998
124.145508 95.040 2.7075
124.511719 95.040 2.7152
124.877930 95.040 2.7229
125.244141 95.041 2.7306
125.610352 95.041 2.7382
125.976562 95.041 2.7459
126.342773 95.041 2.7536
126.708984 95.042 2.7613
127.075195 95.042 2.7690
127.441406 95.042 2.7767
127.807617 95.042 2.7844
128.173828 95.043 2.7921
128.540039 95.043 2.7998
128.906250 95.043 2.8075
129.272461 95.043 2.8153
129.638672 95.044 2.8230
130.004883 95.044 2.8308
130.371094 95.044 2.8385
130.737305 95.044 2.8463
131.103516 95.045 2.8541
131.469727 95.045 2.8619
131.835938 95.045 2.8697
132.202148 95.045 2.8775
132.568359 95.046 2.8853
132.934570 95.046 2.8932
133.300781 95.046 2.9010
133.666992 95.046 2.9087
134.033203 95.047 2.9165
134.399414 95.047 2.9243
134.765625 95.047 2.9320
135.131836 95.047 2.9397
135.498047 95.048 2.9474
135.864258 95.048 2.9550
136.230469 95.048 2.9627
136.596680 95.048 2.9703
136.962891 95.049 2.9779
137.329102 95.049 2.9855
137.695312 95.049 2.9930
138.061523 95.049 3.0006
138.427734 95.050 3.0082
138.793945 95.050 3.0158
139.160156 95.050 3.0234
139.526367 95.050 3.0311
139.892578 95.051 3.0387
140.258789 95.051 3.0464
140.625000 95.051 3.0541
140.991211 95.051 3.0619
141.357422 95.052 3.0697
141.723633 95.052 3.0774
142.089844 95.052 3.0852
142.456055 95.053 3.0930
142.822266 95.053 3.1008
143.188477 95.053 3.1086
143.554688 95.053 3.1163
143.920898 95.054 3.1241
144.287109 95.054 3.1318
144.653320 95.054 3.1394
145.019531 95.054 3.1471
145.385742 95.055 3.1547
145.751953 95.055 3.1623
146.118164 95.055 3.1698
146.484375 95.055 3.1774
146.850586 95.056 3.1849
147.216797 95.056 3.1925
147.583008 95.056 3.2000
147.949219 95.056 3.2075
148.315430 95.057 3.2151
148.681641 95.057 3.2227
149.047852 95.057 3.2302
149.414062 95.058 3.2378
149.780273 95.058 3.2455
150.146484 95.058 3.2531
150.512695 95.058 3.2608
150.878906 95.059 3.2685
151.245117 95.059 3.2761
151.611328 95.059 3.2838
151.977539 95.060 3.2915
152.343750 95.060 3.2992
152.709961 95.060 3.3069
153.076172 95.060 3.3145
153.442383 95.061 3.3222
153.808594 95.061 3.3298
154.174805 95.061 3.3374
154.541016 95.061 3.3451
154.907227 95.062 3.3526
155.273438 95.062 3.3602
155.639648 95.062 3.3678
156.005859 95.063 3.3753
156.372070 95.063 3.3829
156.738281 95.063 3.3904
157.104492 95.063 3.3980
157.470703 95.064 3.4055
157.836914 95.064 3.4131
158.203125 95.064 3.4206
158.569336 95.065 3.4281
158.935547 95.065 3.4357
159.301758 95.065 3.4432
159.667969 95.065 3.4507
160.034180 95.066 3.4583
160.400391 95.066 3.4658
160.766602 95.066 3.4734
161.132812 95.067 3.4809
161.499023 95.067 3.4885
161.865234 95.067 3.4960
162.231445 95.068 3.5036
162.597656 95.068 3.5112
162.963867 95.068 3.5188
163.330078 95.068 3.5263
163.696289 95.069 3.5339
164.062500 95.069 3.5415
164.428711 95.069 3.5490
164.794922 95.070 3.5566
165.161133 95.070 3.5642
165.527344 95.070 3.5717
165.893555 95.070 3.5793
166.259766 95.071 3.5868
166.625977 95.071 3.5944
166.992188 95.071 3.6019
167.358398 95.072 3.6094
167.724609 95.072 3.6169
168.090820 95.072 3.6244
168.457031 95.073 3.6318
168.823242 95.073 3.6393
169.189453 95.073 3.6467
169.555664 95.073 3.6541
169.921875 95.074 3.6616
170.288086 95.074 3.6690
170.654297 95.074 3.6765
171.020508 95.075 3.6839
171.386719 95.075 3.6914
171.752930 95.075 3.6989
172.119141 95.076 3.7064
172.485352 95.076 3.7139
172.851562 95.076 3.7214
173.217773 95.077 3.7289
173.583984 95.077 3.7364
173.950195 95.077 3.7440
174.316406 95.078 3.7515
174.682617 95.078 3.7590
175.048828 95.078 3.7665
175.415039 95.078 3.7740
175.781250 95.079 3.7815
176.147461 95.079 3.7890
176.513672 95.079 3.7965
176.879883 95.080 3.8039
177.246094 95.080 3.8114
177.612305 95.080 3.8188
177.978516 95.081 3.8262
178.344727 95.081 3.8336
178.710938 95.081 3.8410
179.077148 95.082 3.8483
179.443359 95.082 3.8557
179.809570 95.082 3.8631
180.175781 95.083 3.8705
180.541992 95.083 3.8779
180.908203 95.083 3.8852
181.274414 95.084 3.8927
181.640625 95.084 3.9001
182.006836 95.084 3.9075
182.373047 95.085 3.9149
182.739258 95.085 3.9224
183.105469 95.085 3.9298
183.471680 95.086 3.9373
183.837891 95.086 3.9447
184.204102 95.086 3.9521
184.570312 95.087 3.9596
184.936523 95.087 3.9670
185.302734 95.087 3.9744
185.668945 95.087 3.9818
186.035156 95.088 3.9892
186.401367 95.088 3.9966
186.767578 95.088 4.0040
187.133789 95.089 4.0114
187.500000 95.089 4.0187
187.866211 95.089 4.0261
188.232422 95.090 4.0335
188.598633 95.090 4.0408
188.964844 95.090 4.0481
189.331055 95.091 4.0555
189.697266 95.091 4.0628
190.063477 95.091 4.0702
190.429688 95.092 4.0775
190.795898 95.092 4.0848
191.162109 95.092 4.0922
191.528320 95.093 4.0995
191.894531 95.093 4.1068
192.260742 95.093 4.1142
192.626953 95.094 4.1215
192.993164 95.094 4.1288
193.359375 95.095 4.1362
193.725586 95.095 4.1435
194.091797 95.095 4.1508
194.458008 95.096 4.1582
194.824219 95.096 4.1655
195.190430 95.096 4.1729
195.556641 95.097 4.1802
195.922852 95.097 4.1875
196.289062 95.097 4.1949
196.655273 95.098 4.2022
197.021484 95.098 4.2095
197.387695 95.098 4.2168
197.753906 95.099 4.2242
198.120117 95.099 4.2315
198.486328 95.099 4.2388
198.852539 95.100 4.2461
199.218750 95.100 4.2534
199.584961 95.100 4.2606
199.951172 95.101 4.2679
200.317383 95.101 4.2752
200.683594 95.101 4.2824
201.049805 95.102 4.2897
201.416016 95.102 4.2969
201.782227 95.102 4.3041
202.148438 95.103 4.3114
202.514648 95.103 4.3186
202.880859 95.104 4.3259
203.247070 95.104 4.3331
203.613281 95.104 4.3404
203.979492 95.105 4.3476
204.345703 95.105 4.3549
204.711914 95.105 4.3621
205.078125 95.106 4.3694
205.444336 95.106 4.3767
205.810547 95.106 4.3840
206.176758 95.107 4.3912
206.542969 95.107 4.3985
206.909180 95.108 4.4058
207.275391 95.108 4.4130
207.641602 95.108 4.4203
208.007812 95.109 4.4275
208.374023 95.109 4.4347
208.740234 95.109 4.4420
209.106445 95.110 4.4492
209.472656 95.110 4.4564
209.838867 95.110 4.4636
210.205078 95.111 4.4707
210.571289 95.111 4.4779
210.937500 95.111 4.4851
211.303711 95.112 4.4922
211.669922 95.112 4.4994
212.036133 95.113 4.5066
212.402344 95.113 4.5137
212.768555 95.113 4.5209
213.134766 95.114 4.5281
213.500977 95.114 4.5353
213.867188 95.114 4.5425
214.233398 95.115 4.5496
214.599609 95.115 4.5568
214.965820 95.116 4.5640
215.332031 95.116 4.5712
215.698242 95.116 4.5784
216.064453 95.117 4.5856
216.430664 95.117 4.5928
216.796875 95.117 4.5999
217.163086 95.118 4.6071
217.529297 95.118 4.6143
217.895508 95.119 4.6214
218.261719 95.119 4.6286
218.627930 95.119 4.6357
218.994141 95.120 4.6429
219.360352 95.120 4.6500
219.726562 95.120 4.6571
220.092773 95.121 4.6642
220.458984 95.121 4.6713
220.825195 95.122 4.6785
221.191406 95.122 4.6856
221.557617 95.122 4.6927
221.923828 95.123 4.6998
222.290039 95.123 4.7069
222.656250 95.123 4.7140
223.022461 95.124 4.7211
223.388672 95.124 4.7282
223.754883 95.125 4.7353
224.121094 95.125 4.7424
224.487305 95.125 4.7495
224.853516 95.126 4.7565
225.219727 95.126 4.7636
225.585938 95.126 4.7707
225.952148 95.127 4.7778
226.318359 95.127 4.7849
226.684570 95.128 4.7920
227.050781 95.128 4.7991
227.416992 95.128 4.8061
227.783203 95.129 4.8132
228.149414 95.129 4.8203
228.515625 95.130 4.8274
228.881836 95.130 4.8344
229.248047 95.130 4.8415
229.614258 95.131 4.8486
229.980469 95.131 4.8557
230.346680 95.132 4.8627
230.712891 95.132 4.8697
231.079102 95.132 4.8768
231.445312 95.133 4.8838
231.811523 95.133 4.8908
232.177734 95.133 4.8979
232.543945 95.134 4.9049
232.910156 95.134 4.9119
233.276367 95.135 4.9189
233.642578 95.135 4.9259
234.008789 95.135 4.9329
234.375000 95.136 4.9399
234.741211 95.136 4.9469
235.107422 95.137 4.9539
235.473633 95.137 4.9609
235.839844 95.137 4.9679
236.206055 95.138 4.9749
236.572266 95.138 4.9819
236.938477 95.139 4.9889
237.304688 95.139 4.9959
237.670898 95.139 5.0029
238.037109 95.140 5.0099
238.403320 95.140 5.0169
238.769531 95.141 5.0239
239.135742 95.141 5.0309
239.501953 95.141 5.0379
239.868164 95.142 5.0449
240.234375 95.142 5.0519
240.600586 95.143 5.0588
240.966797 95.143 5.0658
241.333008 95.143 5.0727
241.699219 95.144 5.0797
242.065430 95.144 5.0866
242.431641 95.145 5.0935
242.797852 95.145 5.1005
243.164062 95.145 5.1074
243.530273 95.146 5.1143
243.896484 95.146 5.1212
244.262695 95.147 5.1281
244.628906 95.147 5.1351
244.995117 95.148 5.1420
245.361328 95.148 5.1489
245.727539 95.148 5.1558
246.093750 95.149 5.1628
246.459961 95.149 5.1697
246.826172 95.150 5.1766
247.192383 95.150 5.1835
247.558594 95.150 5.1904
247.924805 95.151 5.1974
248.291016 95.151 5.2043
248.657227 95.152 5.2112
249.023438 95.152 5.2181
249.389648 95.152 5.2250
249.755859 95.153 5.2319
250.122070 95.153 5.2388
250.488281 95.154 5.2456
250.854492 95.154 5.2525
251.220703 95.155 5.2594
251.586914 95.155 5.2662
251.953125 95.155 5.2731
252.319336 95.156 5.2800
252.685547 95.156 5.2868
253.051758 95.157 5.2937
253.417969 95.157 5.3005
253.784180 95.157 5.3074
254.150391 95.158 5.3142
254.516602 95.158 5.3210
254.882812 95.159 5.3279
255.249023 95.159 5.3347
255.615234 95.160 5.3415
255.981445 95.160 5.3484
256.347656 95.160 5.3552
256.713867 95.161 5.3620
257.080078 95.161 5.3689
257.446289 95.162 5.3757
257.812500 95.162 5.3825
258.178711 95.162 5.3893
258.544922 95.163 5.3961
258.911133 95.163 5.4029
259.277344 95.164 5.4098
259.643555 95.164 5.4166
260.009766 95.165 5.4234
260.375977 95.165 5.4302
260.742188 95.165 5.4370
261.108398 95.166 5.4438
261.474609 95.166 5.4506
261.840820 95.167 5.4574
262.207031 95.167 5.4641
262.573242 95.168 5.4709
262.939453 95.168 5.4777
263.305664 95.168 5.4845
263.671875 95.169 5.4912
264.038086 95.169 5.4980
264.404297 95.170 5.5047
264.770508 95.170 5.5115
265.136719 95.171 5.5182
265.502930 95.171 5.5250
265.869141 95.171 5.5317
266.235352 95.172 5.5384
266.601562 95.172 5.5451
266.967773 95.173 5.5519
267.333984 95.173 5.5586
267.700195 95.174 5.5653
268.066406 95.174 5.5721
268.432617 95.174 5.5788
268.798828 95.175 5.5855
269.165039 95.175 5.5923
269.531250 95.176 5.5990
269.897461 95.176 5.6057
270.263672 95.177 5.6124
270.629883 95.177 5.6192
270.996094 95.178 5.6259
271.362305 95.178 5.6326
271.728516 95.178 5.6393
272.094727 95.179 5.6460
272.460938 95.179 5.6527
272.827148 95.180 5.6594
273.193359 95.180 5.6661
273.559570 95.181 5.6727
273.925781 95.181 5.6794
274.291992 95.181 5.6861
274.658203 95.182 5.6927
275.024414 95.182 5.6994
275.390625 95.183 5.7060
275.756836 95.183 5.7127
276.123047 95.184 5.7193
276.489258 95.184 5.7260
276.855469 95.185 5.7326
277.221680 95.185 5.7393
277.587891 95.185 5.7459
277.954102 95.186 5.7526
278.320312 95.186 5.7592
278.686523 95.187 5.7658
279.052734 95.187 5.7725
279.418945 95.188 5.7791
279.785156 95.188 5.7857
280.151367 95.189 5.7924
280.517578 95.189 5.7990
280.883789 95.189 5.8056
281.250000 95.190 5.8122
281.616211 95.190 5.8189
281.982422 95.191 5.8255
282.348633 95.191 5.8321
282.714844 95.192 5.8387
283.081055 95.192 5.8453
283.447266 95.193 5.8519
283.813477 95.193 5.8584
284.179688 95.194 5.8650
284.545898 95.194 5.8716
284.912109 95.194 5.8782
285.278320 95.195 5.8847
285.644531 95.195 5.8913
286.010742 95.196 5.8979
286.376953 95.196 5.9044
286.743164 95.197 5.9110
287.109375 95.197 5.9176
287.475586 95.198 5.9241
287.841797 95.198 5.9307
288.208008 95.198 5.9372
288.574219 95.199 5.9438
288.940430 95.199 5.9503
289.306641 95.200 5.9568
289.672852 95.200 5.9634
290.039062 95.201 5.9699
290.405273 95.201 5.9764
290.771484 95.202 5.9830
291.137695 95.202 5.9895
291.503906 95.203 5.9960
291.870117 95.203 6.0025
292.236328 95.204 6.0091
292.602539 95.204 6.0156
292.968750 95.204 6.0221
293.334961 95.205 6.0286
293.701172 95.205 6.0351
294.067383 95.206 6.0416
294.433594 95.206 6.0481
294.799805 95.207 6.0546
295.166016 95.207 6.0611
295.532227 95.208 6.0676
295.898438 95.208 6.0740
296.264648 95.209 6.0805
296.630859 95.209 6.0870
296.997070 95.209 6.0934
297.363281 95.210 6.0999
297.729492 95.210 6.1064
298.095703 95.211 6.1128
298.461914 95.211 6.1192
298.828125 95.212 6.1257
299.194336 95.212 6.1321
299.560547 95.213 6.1386
299.926758 95.213 6.1450
300.292969 95.214 6.1515
300.659180 95.214 6.1579
301.025391 95.215 6.1644
301.391602 95.215 6.1708
301.757812 95.216 6.1772
302.124023 95.216 6.1837
302.490234 95.216 6.1901
302.856445 95.217 6.1965
303.222656 95.217 6.2030
303.588867 95.218 6.2094
303.955078 95.218 6.2158
304.321289 95.219 6.2222
304.687500 95.219 6.2286
305.053711 95.220 6.2350
305.419922 95.220 6.2414
305.786133 95.221 6.2478
306.152344 95.221 6.2541
306.518555 95.222 6.2605
306.884766 95.222 6.2669
307.250977 95.223 6.2733
307.617188 95.223 6.2796
307.983398 95.224 6.2860
308.349609 95.224 6.2923
308.715820 95.224 6.2987
309.082031 95.225 6.3051
309.448242 95.225 6.3114
309.814453 95.226 6.3178
310.180664 95.226 6.3241
310.546875 95.227 6.3305
310.913086 95.227 6.3368
311.279297 95.228 6.3432
311.645508 95.228 6.3495
312.011719 95.229 6.3559
312.377930 95.229 6.3622
312.744141 95.230 6.3685
313.110352 95.230 6.3748
313.476562 95.231 6.3812
313.842773 95.231 6.3875
314.208984 95.232 6.3938
314.575195 95.232 6.4001
314.941406 95.233 6.4064
315.307617 95.233 6.4127
