* Freq(Hz) SPL(dB) Phase(degrees)
20.141602 94.808 0.0089
20.507812 94.824 0.1701
20.874023 94.829 0.3663
21.240234 94.826 0.5573
21.606445 94.818 0.7145
21.972656 94.805 0.8271
22.338867 94.788 0.8981
22.705078 94.769 0.9351
23.071289 94.750 0.9430
23.437500 94.734 0.9231
23.803711 94.722 0.8766
24.169922 94.713 0.8086
24.536133 94.707 0.7284
24.902344 94.705 0.6465
25.268555 94.706 0.5711
25.634766 94.710 0.5067
26.000977 94.718 0.4557
26.367188 94.727 0.4196
26.733398 94.737 0.4004
27.099609 94.747 0.3997
27.465820 94.757 0.4174
27.832031 94.766 0.4513
28.198242 94.773 0.4977
28.564453 94.778 0.5525
28.930664 94.782 0.6121
29.296875 94.783 0.6732
29.663086 94.782 0.7326
30.029297 94.779 0.7872
30.395508 94.775 0.8343
30.761719 94.769 0.8718
31.127930 94.763 0.8985
31.494141 94.757 0.9139
31.860352 94.751 0.9185
32.226562 94.745 0.9132
32.592773 94.740 0.8996
32.958984 94.737 0.8796
33.325195 94.734 0.8557
33.691406 94.733 0.8301
34.057617 94.734 0.8050
34.423828 94.735 0.7826
34.790039 94.738 0.7646
35.156250 94.742 0.7525
35.522461 94.746 0.7474
35.888672 94.750 0.7497
36.254883 94.754 0.7591
36.621094 94.758 0.7751
36.987305 94.762 0.7969
37.353516 94.764 0.8233
37.719727 94.766 0.8529
38.085938 94.768 0.8842
38.452148 94.768 0.9156
38.818359 94.767 0.9458
39.184570 94.766 0.9734
39.550781 94.764 0.9975
39.916992 94.761 1.0173
40.283203 94.759 1.0324
40.649414 94.756 1.0427
41.015625 94.753 1.0485
41.381836 94.751 1.0502
41.748047 94.749 1.0486
42.114258 94.748 1.0444
42.480469 94.747 1.0387
42.846680 94.747 1.0324
43.212891 94.747 1.0265
43.579102 94.748 1.0220
43.945312 94.749 1.0195
44.311523 94.751 1.0196
44.677734 94.752 1.0226
45.043945 94.754 1.0287
45.410156 94.756 1.0378
45.776367 94.758 1.0496
46.142578 94.759 1.0638
46.508789 94.761 1.0799
46.875000 94.762 1.0973
47.241211 94.762 1.1153
47.607422 94.762 1.1334
47.973633 94.762 1.1509
48.339844 94.762 1.1674
48.706055 94.761 1.1824
49.072266 94.760 1.1958
49.438477 94.759 1.2073
49.804688 94.758 1.2170
50.170898 94.757 1.2250
50.537109 94.756 1.2313
50.903320 94.756 1.2363
51.269531 94.755 1.2404
51.635742 94.755 1.2439
52.001953 94.755 1.2471
52.368164 94.755 1.2504
52.734375 94.755 1.2541
53.100586 94.756 1.2585
53.466797 94.756 1.2637
53.833008 94.757 1.2699
54.199219 94.758 1.2771
54.565430 94.758 1.2853
54.931641 94.759 1.2945
55.297852 94.760 1.3044
55.664062 94.760 1.3150
56.030273 94.761 1.3261
56.396484 94.761 1.3375
56.762695 94.761 1.3489
57.128906 94.761 1.3603
57.495117 94.761 1.3716
57.861328 94.761 1.3825
58.227539 94.761 1.3930
58.593750 94.761 1.4031
58.959961 94.761 1.4127
59.326172 94.761 1.4219
59.692383 94.761 1.4307
60.058594 94.761 1.4391
60.424805 94.760 1.4473
60.791016 94.760 1.4551
61.157227 94.760 1.4628
61.523438 94.760 1.4704
61.889648 94.760 1.4780
62.255859 94.761 1.4855
62.622070 94.761 1.4931
62.988281 94.761 1.5007
63.354492 94.761 1.5084
63.720703 94.761 1.5162
64.086914 94.761 1.5241
64.453125 94.762 1.5321
64.819336 94.762 1.5403
65.185547 94.762 1.5486
65.551758 94.762 1.5570
65.917969 94.763 1.5656
66.284180 94.763 1.5743
66.650391 94.763 1.5832
67.016602 94.764 1.5923
67.382812 94.764 1.6015
67.749023 94.764 1.6108
68.115234 94.764 1.6203
68.481445 94.764 1.6298
68.847656 94.765 1.6394
69.213867 94.765 1.6490
69.580078 94.765 1.6586
69.946289 94.765 1.6681
70.312500 94.765 1.6774
70.678711 94.765 1.6866
71.044922 94.765 1.6956
71.411133 94.765 1.7044
71.777344 94.765 1.7129
72.143555 94.765 1.7212
72.509766 94.765 1.7293
72.875977 94.765 1.7372
73.242188 94.765 1.7449
73.608398 94.765 1.7525
73.974609 94.765 1.7601
74.340820 94.766 1.7677
74.707031 94.766 1.7753
75.073242 94.766 1.7831
75.439453 94.766 1.7910
75.805664 94.767 1.7991
76.171875 94.767 1.8075
76.538086 94.767 1.8161
76.904297 94.768 1.8250
77.270508 94.768 1.8341
77.636719 94.768 1.8434
78.002930 94.768 1.8528
78.369141 94.769 1.8623
78.735352 94.769 1.8719
79.101562 94.769 1.8815
79.467773 94.769 1.8909
79.833984 94.769 1.9003
80.200195 94.769 1.9095
80.566406 94.769 1.9186
80.932617 94.769 1.9274
81.298828 94.769 1.9360
81.665039 94.769 1.9444
82.031250 94.769 1.9527
82.397461 94.770 1.9608
82.763672 94.770 1.9687
83.129883 94.770 1.9766
83.496094 94.770 1.9844
83.862305 94.770 1.9923
84.228516 94.770 2.0002
84.594727 94.771 2.0082
84.960938 94.771 2.0163
85.327148 94.771 2.0246
85.693359 94.771 2.0330
86.059570 94.772 2.0415
86.425781 94.772 2.0502
86.791992 94.772 2.0590
87.158203 94.772 2.0679
87.524414 94.773 2.0768
87.890625 94.773 2.0859
88.256836 94.773 2.0949
88.623047 94.773 2.1039
88.989258 94.773 2.1129
89.355469 94.774 2.1219
89.721680 94.774 2.1308
90.087891 94.774 2.1396
90.454102 94.774 2.1483
90.820312 94.774 2.1570
91.186523 94.774 2.1655
91.552734 94.774 2.1740
91.918945 94.775 2.1825
92.285156 94.775 2.1909
92.651367 94.775 2.1993
93.017578 94.775 2.2076
93.383789 94.775 2.2159
93.750000 94.775 2.2243
94.116211 94.776 2.2326
94.482422 94.776 2.2409
94.848633 94.776 2.2493
95.214844 94.776 2.2576
95.581055 94.777 2.2660
95.947266 94.777 2.2744
96.313477 94.777 2.2828
96.679688 94.777 2.2913
97.045898 94.777 2.2998
97.412109 94.778 2.3083
97.778320 94.778 2.3168
98.144531 94.778 2.3254
98.510742 94.778 2.3340
98.876953 94.779 2.3426
99.243164 94.779 2.3513
99.609375 94.779 2.3600
99.975586 94.779 2.3687
100.341797 94.780 2.3775
100.708008 94.780 2.3862
101.074219 94.780 2.3949
101.440430 94.780 2.4037
101.806641 94.780 2.4124
102.172852 94.781 2.4210
102.539062 94.781 2.4296
102.905273 94.781 2.4382
103.271484 94.781 2.4467
103.637695 94.781 2.4552
104.003906 94.781 2.4635
104.370117 94.782 2.4719
104.736328 94.782 2.4801
105.102539 94.782 2.4884
105.468750 94.782 2.4966
105.834961 94.782 2.5048
106.201172 94.783 2.5130
106.567383 94.783 2.5212
106.933594 94.783 2.5295
107.299805 94.783 2.5378
107.666016 94.784 2.5462
108.032227 94.784 2.5546
108.398438 94.784 2.5632
108.764648 94.784 2.5717
109.130859 94.785 2.5804
109.497070 94.785 2.5891
109.863281 94.785 2.5978
110.229492 94.786 2.6065
110.595703 94.786 2.6153
110.961914 94.786 2.6240
111.328125 94.786 2.6327
111.694336 94.786 2.6414
112.060547 94.787 2.6500
112.426758 94.787 2.6586
112.792969 94.787 2.6671
113.159180 94.787 2.6755
113.525391 94.787 2.6839
113.891602 94.788 2.6922
114.257812 94.788 2.7005
114.624023 94.788 2.7087
114.990234 94.788 2.7169
115.356445 94.788 2.7251
115.722656 94.789 2.7333
116.088867 94.789 2.7416
116.455078 94.789 2.7498
116.821289 94.790 2.7581
117.187500 94.790 2.7665
117.553711 94.790 2.7749
117.919922 94.790 2.7833
118.286133 94.791 2.7918
118.652344 94.791 2.8003
119.018555 94.791 2.8088
119.384766 94.791 2.8174
119.750977 94.792 2.8259
120.117188 94.792 2.8345
120.483398 94.792 2.8431
120.849609 94.792 2.8516
121.215820 94.793 2.8602
121.582031 94.793 2.8687
121.948242 94.793 2.8772
122.314453 94.793 2.8856
122.680664 94.794 2.8941
123.046875 94.794 2.9025
123.413086 94.794 2.9108
123.779297 94.794 2.9192
124.145508 94.795 2.9275
124.511719 94.795 2.9358
124.877930 94.795 2.9441
125.244141 94.795 2.9524
125.610352 94.796 2.9607
125.976562 94.796 2.9690
126.342773 94.796 2.9773
126.708984 94.796 2.9857
127.075195 94.797 2.9940
127.441406 94.797 3.0023
127.807617 94.797 3.0106
128.173828 94.797 3.0189
128.540039 94.798 3.0273
128.906250 94.798 3.0356
129.272461 94.798 3.0440
129.638672 94.799 3.0524
130.004883 94.799 3.0607
130.371094 94.799 3.0691
130.737305 94.799 3.0775
131.103516 94.800 3.0859
131.469727 94.800 3.0944
131.835938 94.800 3.1028
132.202148 94.801 3.1112
132.568359 94.801 3.1197
132.934570 94.801 3.1281
133.300781 94.801 3.1365
133.666992 94.802 3.1449
134.033203 94.802 3.1533
134.399414 94.802 3.1617
134.765625 94.802 3.1700
135.131836 94.803 3.1784
135.498047 94.803 3.1867
135.864258 94.803 3.1949
136.230469 94.803 3.2032
136.596680 94.804 3.2114
136.962891 94.804 3.2196
137.329102 94.804 3.2278
137.695312 94.805 3.2360
138.061523 94.805 3.2442
138.427734 94.805 3.2524
138.793945 94.805 3.2606
139.160156 94.806 3.2689
139.526367 94.806 3.2771
139.892578 94.806 3.2854
140.258789 94.807 3.2937
140.625000 94.807 3.3021
140.991211 94.807 3.3104
141.357422 94.808 3.3188
141.723633 94.808 3.3272
142.089844 94.808 3.3356
142.456055 94.808 3.3440
142.822266 94.809 3.3524
143.188477 94.809 3.3608
143.554688 94.809 3.3692
143.920898 94.810 3.3775
144.287109 94.810 3.3858
144.653320 94.810 3.3941
145.019531 94.810 3.4024
145.385742 94.811 3.4106
145.751953 94.811 3.4188
146.118164 94.811 3.4270
146.484375 94.812 3.4351
146.850586 94.812 3.4433
147.216797 94.812 3.4514
147.583008 94.812 3.4596
147.949219 94.813 3.4677
148.315430 94.813 3.4759
148.681641 94.813 3.4841
149.047852 94.814 3.4923
149.414062 94.814 3.5005
149.780273 94.814 3.5087
150.146484 94.815 3.5170
150.512695 94.815 3.5252
150.878906 94.815 3.5335
151.245117 94.816 3.5418
151.611328 94.816 3.5501
151.977539 94.816 3.5584
152.343750 94.817 3.5667
152.709961 94.817 3.5750
153.076172 94.817 3.5833
153.442383 94.817 3.5915
153.808594 94.818 3.5998
154.174805 94.818 3.6080
154.541016 94.818 3.6162
154.907227 94.819 3.6244
155.273438 94.819 3.6326
155.639648 94.819 3.6408
156.005859 94.820 3.6489
156.372070 94.820 3.6571
156.738281 94.820 3.6652
157.104492 94.821 3.6734
157.470703 94.821 3.6815
157.836914 94.821 3.6897
158.203125 94.822 3.6978
158.569336 94.822 3.7059
158.935547 94.822 3.7141
159.301758 94.823 3.7222
159.667969 94.823 3.7303
160.034180 94.823 3.7385
160.400391 94.824 3.7466
160.766602 94.824 3.7548
161.132812 94.824 3.7630
161.499023 94.824 3.7711
161.865234 94.825 3.7793
162.231445 94.825 3.7874
162.597656 94.825 3.7956
162.963867 94.826 3.8038
163.330078 94.826 3.8120
163.696289 94.826 3.8201
164.062500 94.827 3.8283
164.428711 94.827 3.8365
164.794922 94.827 3.8447
165.161133 94.828 3.8528
165.527344 94.828 3.8610
165.893555 94.828 3.8691
166.259766 94.829 3.8773
166.625977 94.829 3.8854
166.992188 94.829 3.8935
167.358398 94.830 3.9016
167.724609 94.830 3.9097
168.090820 94.830 3.9178
168.457031 94.831 3.9258
168.823242 94.831 3.9339
169.189453 94.831 3.9419
169.555664 94.832 3.9500
169.921875 94.832 3.9580
170.288086 94.832 3.9660
170.654297 94.833 3.9741
171.020508 94.833 3.9821
171.386719 94.834 3.9902
171.752930 94.834 3.9982
172.119141 94.834 4.0063
172.485352 94.835 4.0144
172.851562 94.835 4.0225
173.217773 94.835 4.0307
173.583984 94.836 4.0388
173.950195 94.836 4.0469
174.316406 94.836 4.0550
174.682617 94.837 4.0631
175.048828 94.837 4.0712
175.415039 94.837 4.0793
175.781250 94.838 4.0874
176.147461 94.838 4.0955
176.513672 94.838 4.1036
176.879883 94.839 4.1116
177.246094 94.839 4.1196
177.612305 94.839 4.1276
177.978516 94.840 4.1356
178.344727 94.840 4.1436
178.710938 94.840 4.1516
179.077148 94.841 4.1596
179.443359 94.841 4.1675
179.809570 94.842 4.1755
180.175781 94.842 4.1835
180.541992 94.842 4.1914
180.908203 94.843 4.1994
181.274414 94.843 4.2074
181.640625 94.843 4.2154
182.006836 94.844 4.2234
182.373047 94.844 4.2314
182.739258 94.845 4.2395
183.105469 94.845 4.2475
183.471680 94.845 4.2555
183.837891 94.846 4.2635
184.204102 94.846 4.2716
184.570312 94.846 4.2796
184.936523 94.847 4.2876
185.302734 94.847 4.2956
185.668945 94.847 4.3036
186.035156 94.848 4.3116
186.401367 94.848 4.3196
186.767578 94.849 4.3275
187.133789 94.849 4.3355
187.500000 94.849 4.3434
187.866211 94.850 4.3514
188.232422 94.850 4.3593
188.598633 94.850 4.3672
188.964844 94.851 4.3752
189.331055 94.851 4.3831
189.697266 94.851 4.3910
190.063477 94.852 4.3989
190.429688 94.852 4.4068
190.795898 94.853 4.4147
191.162109 94.853 4.4227
191.528320 94.853 4.4306
191.894531 94.854 4.4385
192.260742 94.854 4.4464
192.626953 94.854 4.4543
192.993164 94.855 4.4622
193.359375 94.855 4.4701
193.725586 94.856 4.4781
194.091797 94.856 4.4860
194.458008 94.856 4.4939
194.824219 94.857 4.5018
195.190430 94.857 4.5097
195.556641 94.858 4.5176
195.922852 94.858 4.5256
196.289062 94.858 4.5335
196.655273 94.859 4.5414
197.021484 94.859 4.5493
197.387695 94.859 4.5572
197.753906 94.860 4.5651
198.120117 94.860 4.5730
198.486328 94.861 4.5808
198.852539 94.861 4.5887
199.218750 94.861 4.5966
199.584961 94.862 4.6044
199.951172 94.862 4.6123
200.317383 94.863 4.6201
200.683594 94.863 4.6279
201.049805 94.863 4.6357
201.416016 94.864 4.6435
201.782227 94.864 4.6513
202.148438 94.865 4.6591
202.514648 94.865 4.6669
202.880859 94.865 4.6748
203.247070 94.866 4.6826
203.613281 94.866 4.6904
203.979492 94.867 4.6982
204.345703 94.867 4.7061
204.711914 94.867 4.7139
205.078125 94.868 4.7217
205.444336 94.868 4.7296
205.810547 94.869 4.7374
206.176758 94.869 4.7453
206.542969 94.869 4.7531
206.909180 94.870 4.7609
207.275391 94.870 4.7688
207.641602 94.871 4.7766
208.007812 94.871 4.7844
208.374023 94.871 4.7922
208.740234 94.872 4.8000
209.106445 94.872 4.8077
209.472656 94.873 4.8155
209.838867 94.873 4.8233
210.205078 94.873 4.8310
210.571289 94.874 4.8387
210.937500 94.874 4.8465
211.303711 94.875 4.8542
211.669922 94.875 4.8619
212.036133 94.875 4.8696
212.402344 94.876 4.8774
212.768555 94.876 4.8851
213.134766 94.877 4.8928
213.500977 94.877 4.9006
213.867188 94.877 4.9083
214.233398 94.878 4.9161
214.599609 94.878 4.9238
214.965820 94.879 4.9316
215.332031 94.879 4.9393
215.698242 94.880 4.9471
216.064453 94.880 4.9548
216.430664 94.880 4.9626
216.796875 94.881 4.9703
217.163086 94.881 4.9780
217.529297 94.882 4.9858
217.895508 94.882 4.9935
218.261719 94.882 5.0012
218.627930 94.883 5.0089
218.994141 94.883 5.0166
219.360352 94.884 5.0243
219.726562 94.884 5.0319
220.092773 94.884 5.0396
220.458984 94.885 5.0473
220.825195 94.885 5.0550
221.191406 94.886 5.0626
221.557617 94.886 5.0703
221.923828 94.887 5.0779
222.290039 94.887 5.0856
222.656250 94.887 5.0932
223.022461 94.888 5.1009
223.388672 94.888 5.1085
223.754883 94.889 5.1162
224.121094 94.889 5.1238
224.487305 94.890 5.1315
224.853516 94.890 5.1391
225.219727 94.890 5.1468
225.585938 94.891 5.1544
225.952148 94.891 5.1620
226.318359 94.892 5.1697
226.684570 94.892 5.1773
227.050781 94.893 5.1849
227.416992 94.893 5.1926
227.783203 94.893 5.2002
228.149414 94.894 5.2078
228.515625 94.894 5.2155
228.881836 94.895 5.2231
229.248047 94.895 5.2307
229.614258 94.896 5.2383
229.980469 94.896 5.2459
230.346680 94.896 5.2535
230.712891 94.897 5.2611
231.079102 94.897 5.2687
231.445312 94.898 5.2763
231.811523 94.898 5.2838
232.177734 94.899 5.2914
232.543945 94.899 5.2990
232.910156 94.900 5.3065
233.276367 94.900 5.3141
233.642578 94.900 5.3216
234.008789 94.901 5.3292
234.375000 94.901 5.3367
234.741211 94.902 5.3442
235.107422 94.902 5.3518
235.473633 94.903 5.3593
235.839844 94.903 5.3669
236.206055 94.904 5.3744
236.572266 94.904 5.3819
236.938477 94.904 5.3895
237.304688 94.905 5.3971
237.670898 94.905 5.4046
238.037109 94.906 5.4122
238.403320 94.906 5.4197
238.769531 94.907 5.4272
239.135742 94.907 5.4348
239.501953 94.908 5.4423
239.868164 94.908 5.4498
240.234375 94.908 5.4573
240.600586 94.909 5.4648
240.966797 94.909 5.4723
241.333008 94.910 5.4798
241.699219 94.910 5.4873
242.065430 94.911 5.4948
242.431641 94.911 5.5022
242.797852 94.912 5.5097
243.164062 94.912 5.5171
243.530273 94.912 5.5246
243.896484 94.913 5.5320
244.262695 94.913 5.5395
244.628906 94.914 5.5469
244.995117 94.914 5.5544
245.361328 94.915 5.5618
245.727539 94.915 5.5693
246.093750 94.916 5.5768
246.459961 94.916 5.5842
246.826172 94.917 5.5917
247.192383 94.917 5.5991
247.558594 94.918 5.6066
247.924805 94.918 5.6140
248.291016 94.918 5.6215
248.657227 94.919 5.6289
249.023438 94.919 5.6363
249.389648 94.920 5.6438
249.755859 94.920 5.6512
250.122070 94.921 5.6586
250.488281 94.921 5.6660
250.854492 94.922 5.6734
251.220703 94.922 5.6808
251.586914 94.923 5.6882
251.953125 94.923 5.6956
252.319336 94.923 5.7030
252.685547 94.924 5.7104
253.051758 94.924 5.7177
253.417969 94.925 5.7251
253.784180 94.925 5.7325
254.150391 94.926 5.7399
254.516602 94.926 5.7472
254.882812 94.927 5.7546
255.249023 94.927 5.7619
255.615234 94.928 5.7693
255.981445 94.928 5.7766
256.347656 94.929 5.7840
256.713867 94.929 5.7914
257.080078 94.930 5.7987
257.446289 94.930 5.8060
257.812500 94.931 5.8134
258.178711 94.931 5.8207
258.544922 94.931 5.8281
258.911133 94.932 5.8354
259.277344 94.932 5.8427
259.643555 94.933 5.8501
260.009766 94.933 5.8574
260.375977 94.934 5.8647
260.742188 94.934 5.8720
261.108398 94.935 5.8793
261.474609 94.935 5.8867
261.840820 94.936 5.8940
262.207031 94.936 5.9013
262.573242 94.937 5.9086
262.939453 94.937 5.9158
263.305664 94.938 5.9231
263.671875 94.938 5.9304
264.038086 94.939 5.9377
264.404297 94.939 5.9450
264.770508 94.940 5.9522
265.136719 94.940 5.9595
265.502930 94.941 5.9667
265.869141 94.941 5.9740
266.235352 94.941 5.9812
266.601562 94.942 5.9885
266.967773 94.942 5.9957
267.333984 94.943 6.0029
267.700195 94.943 6.0102
268.066406 94.944 6.0174
268.432617 94.944 6.0247
268.798828 94.945 6.0319
269.165039 94.945 6.0391
269.531250 94.946 6.0464
269.897461 94.946 6.0536
270.263672 94.947 6.0609
270.629883 94.947 6.0681
270.996094 94.948 6.0753
271.362305 94.948 6.0825
271.728516 94.949 6.0897
272.094727 94.949 6.0970
272.460938 94.950 6.1042
272.827148 94.950 6.1113
273.193359 94.951 6.1185
273.559570 94.951 6.1257
273.925781 94.952 6.1329
274.291992 94.952 6.1400
274.658203 94.953 6.1472
275.024414 94.953 6.1544
275.390625 94.954 6.1615
275.756836 94.954 6.1687
276.123047 94.955 6.1758
276.489258 94.955 6.1830
276.855469 94.956 6.1901
277.221680 94.956 6.1973
277.587891 94.957 6.2044
277.954102 94.957 6.2116
278.320312 94.958 6.2187
278.686523 94.958 6.2259
279.052734 94.959 6.2330
279.418945 94.959 6.2401
279.785156 94.960 6.2473
280.151367 94.960 6.2544
280.517578 94.961 6.2615
280.883789 94.961 6.2687
281.250000 94.962 6.2758
281.616211 94.962 6.2829
281.982422 94.963 6.2900
282.348633 94.963 6.2971
282.714844 94.964 6.3042
283.081055 94.964 6.3113
283.447266 94.965 6.3184
283.813477 94.965 6.3255
284.179688 94.966 6.3325
284.545898 94.966 6.3396
284.912109 94.967 6.3467
285.278320 94.967 6.3537
285.644531 94.968 6.3608
286.010742 94.968 6.3679
286.376953 94.969 6.3749
286.743164 94.969 6.3820
287.109375 94.970 6.3890
287.475586 94.970 6.3961
287.841797 94.971 6.4031
288.208008 94.971 6.4102
288.574219 94.972 6.4172
288.940430 94.972 6.4242
289.306641 94.973 6.4313
289.672852 94.973 6.4383
290.039062 94.974 6.4453
290.405273 94.974 6.4523
290.771484 94.975 6.4594
291.137695 94.975 6.4664
291.503906 94.976 6.4734
291.870117 94.976 6.4804
292.236328 94.977 6.4874
292.602539 94.977 6.4944
292.968750 94.978 6.5014
293.334961 94.978 6.5084
293.701172 94.979 6.5154
294.067383 94.979 6.5224
294.433594 94.980 6.5294
294.799805 94.980 6.5363
295.166016 94.981 6.5433
295.532227 94.981 6.5503
295.898438 94.982 6.5572
296.264648 94.982 6.5642
296.630859 94.983 6.5711
296.997070 94.983 6.5781
297.363281 94.984 6.5850
297.729492 94.984 6.5920
298.095703 94.985 6.5989
298.461914 94.985 6.6058
298.828125 94.986 6.6128
299.194336 94.987 6.6197
299.560547 94.987 6.6266
299.926758 94.988 6.6335
300.292969 94.988 6.6405
300.659180 94.989 6.6474
301.025391 94.989 6.6543
301.391602 94.990 6.6612
301.757812 94.990 6.6681
302.124023 94.991 6.6750
302.490234 94.991 6.6820
302.856445 94.992 6.6889
303.222656 94.992 6.6958
303.588867 94.993 6.7027
303.955078 94.993 6.7095
304.321289 94.994 6.7164
304.687500 94.994 6.7233
305.053711 94.995 6.7302
305.419922 94.995 6.7370
305.786133 94.996 6.7439
306.152344 94.996 6.7507
306.518555 94.997 6.7576
306.884766 94.997 6.7644
307.250977 94.998 6.7713
307.617188 94.999 6.7781
307.983398 94.999 6.7849
308.349609 95.000 6.7918
308.715820 95.000 6.7986
309.082031 95.001 6.8054
309.448242 95.001 6.8123
309.814453 95.002 6.8191
310.180664 95.002 6.8259
310.546875 95.003 6.8327
310.913086 95.003 6.8395
311.279297 95.004 6.8464
311.645508 95.004 6.8532
312.011719 95.005 6.8600
312.377930 95.005 6.8668
312.744141 95.006 6.8736
313.110352 95.006 6.8804
313.476562 95.007 6.8872
313.842773 95.008 6.8940
314.208984 95.008 6.9008
314.575195 95.009 6.9075
314.941406 95.009 6.9143
315.307617 95.010 6.9211
