* Freq(Hz) SPL(dB) Phase(degrees)
20.141602 95.657 -0.1070
20.507812 95.674 0.0520
20.874023 95.678 0.2461
21.240234 95.676 0.4350
21.606445 95.668 0.5900
21.972656 95.655 0.7004
22.338867 95.638 0.7692
22.705078 95.618 0.8040
23.071289 95.600 0.8098
23.437500 95.584 0.7877
23.803711 95.571 0.7390
24.169922 95.562 0.6689
24.536133 95.556 0.5866
24.902344 95.554 0.5026
25.268555 95.555 0.4251
25.634766 95.560 0.3587
26.000977 95.567 0.3056
26.367188 95.576 0.2674
26.733398 95.587 0.2462
27.099609 95.597 0.2435
27.465820 95.606 0.2591
27.832031 95.615 0.2910
28.198242 95.622 0.3353
28.564453 95.628 0.3880
28.930664 95.631 0.4455
29.296875 95.632 0.5045
29.663086 95.631 0.5618
30.029297 95.628 0.6143
30.395508 95.624 0.6592
30.761719 95.618 0.6945
31.127930 95.612 0.7190
31.494141 95.606 0.7323
31.860352 95.600 0.7347
32.226562 95.594 0.7272
32.592773 95.589 0.7114
32.958984 95.586 0.6894
33.325195 95.583 0.6633
33.691406 95.582 0.6356
34.057617 95.583 0.6085
34.423828 95.584 0.5839
34.790039 95.587 0.5639
35.156250 95.591 0.5498
35.522461 95.595 0.5426
35.888672 95.599 0.5428
36.254883 95.603 0.5502
36.621094 95.607 0.5642
36.987305 95.611 0.5839
37.353516 95.613 0.6082
37.719727 95.615 0.6357
38.085938 95.616 0.6649
38.452148 95.616 0.6942
38.818359 95.616 0.7222
39.184570 95.614 0.7477
39.550781 95.612 0.7696
39.916992 95.610 0.7873
40.283203 95.607 0.8003
40.649414 95.604 0.8085
41.015625 95.602 0.8121
41.381836 95.599 0.8117
41.748047 95.597 0.8079
42.114258 95.596 0.8016
42.480469 95.595 0.7938
42.846680 95.595 0.7854
43.212891 95.595 0.7774
43.579102 95.596 0.7708
43.945312 95.597 0.7663
44.311523 95.599 0.7643
44.677734 95.601 0.7652
45.043945 95.602 0.7692
45.410156 95.604 0.7762
45.776367 95.606 0.7860
46.142578 95.608 0.7982
46.508789 95.609 0.8122
46.875000 95.610 0.8274
47.241211 95.610 0.8434
47.607422 95.610 0.8593
47.973633 95.610 0.8747
48.339844 95.610 0.8891
48.706055 95.609 0.9020
49.072266 95.608 0.9133
49.438477 95.607 0.9227
49.804688 95.606 0.9303
50.170898 95.605 0.9361
50.537109 95.604 0.9403
50.903320 95.603 0.9432
51.269531 95.603 0.9452
51.635742 95.602 0.9465
52.001953 95.602 0.9477
52.368164 95.602 0.9489
52.734375 95.603 0.9505
53.100586 95.603 0.9528
53.466797 95.604 0.9559
53.833008 95.604 0.9600
54.199219 95.605 0.9652
54.565430 95.606 0.9713
54.931641 95.606 0.9784
55.297852 95.607 0.9863
55.664062 95.607 0.9948
56.030273 95.608 1.0037
56.396484 95.608 1.0130
56.762695 95.608 1.0224
57.128906 95.608 1.0317
57.495117 95.608 1.0408
57.861328 95.608 1.0497
58.227539 95.608 1.0581
58.593750 95.608 1.0661
58.959961 95.608 1.0736
59.326172 95.608 1.0807
59.692383 95.608 1.0874
60.058594 95.607 1.0937
60.424805 95.607 1.0998
60.791016 95.607 1.1055
61.157227 95.607 1.1112
61.523438 95.607 1.1167
61.889648 95.607 1.1221
62.255859 95.607 1.1276
62.622070 95.607 1.1330
62.988281 95.607 1.1385
63.354492 95.607 1.1442
63.720703 95.608 1.1499
64.086914 95.608 1.1557
64.453125 95.608 1.1616
64.819336 95.608 1.1677
65.185547 95.608 1.1739
65.551758 95.609 1.1803
65.917969 95.609 1.1868
66.284180 95.609 1.1934
66.650391 95.609 1.2003
67.016602 95.610 1.2072
67.382812 95.610 1.2144
67.749023 95.610 1.2216
68.115234 95.610 1.2290
68.481445 95.610 1.2365
68.847656 95.610 1.2440
69.213867 95.610 1.2515
69.580078 95.611 1.2590
69.946289 95.611 1.2664
70.312500 95.611 1.2736
70.678711 95.611 1.2807
71.044922 95.610 1.2877
71.411133 95.610 1.2943
71.777344 95.610 1.3008
72.143555 95.610 1.3070
72.509766 95.610 1.3130
72.875977 95.610 1.3188
73.242188 95.610 1.3244
73.608398 95.610 1.3299
73.974609 95.610 1.3354
74.340820 95.611 1.3409
74.707031 95.611 1.3465
75.073242 95.611 1.3522
75.439453 95.611 1.3580
75.805664 95.611 1.3641
76.171875 95.612 1.3704
76.538086 95.612 1.3770
76.904297 95.612 1.3838
77.270508 95.613 1.3908
77.636719 95.613 1.3980
78.002930 95.613 1.4053
78.369141 95.613 1.4128
78.735352 95.613 1.4203
79.101562 95.613 1.4278
79.467773 95.613 1.4352
79.833984 95.613 1.4425
80.200195 95.613 1.4496
80.566406 95.613 1.4566
80.932617 95.613 1.4633
81.298828 95.613 1.4699
81.665039 95.613 1.4762
82.031250 95.613 1.4824
82.397461 95.614 1.4884
82.763672 95.614 1.4943
83.129883 95.614 1.5001
83.496094 95.614 1.5059
83.862305 95.614 1.5117
84.228516 95.614 1.5175
84.594727 95.614 1.5235
84.960938 95.614 1.5295
85.327148 95.615 1.5357
85.693359 95.615 1.5420
86.059570 95.615 1.5485
86.425781 95.615 1.5551
86.791992 95.615 1.5618
87.158203 95.616 1.5686
87.524414 95.616 1.5756
87.890625 95.616 1.5825
88.256836 95.616 1.5895
88.623047 95.616 1.5964
88.989258 95.616 1.6034
89.355469 95.617 1.6103
89.721680 95.617 1.6171
90.087891 95.617 1.6238
90.454102 95.617 1.6305
90.820312 95.617 1.6371
91.186523 95.617 1.6436
91.552734 95.617 1.6501
91.918945 95.617 1.6565
92.285156 95.617 1.6628
92.651367 95.617 1.6691
93.017578 95.617 1.6754
93.383789 95.618 1.6816
93.750000 95.618 1.6879
94.116211 95.618 1.6942
94.482422 95.618 1.7005
94.848633 95.618 1.7067
95.214844 95.618 1.7130
95.581055 95.618 1.7194
95.947266 95.619 1.7257
96.313477 95.619 1.7321
96.679688 95.619 1.7385
97.045898 95.619 1.7449
97.412109 95.619 1.7514
97.778320 95.619 1.7579
98.144531 95.620 1.7644
98.510742 95.620 1.7709
98.876953 95.620 1.7775
99.243164 95.620 1.7841
99.609375 95.620 1.7908
99.975586 95.620 1.7975
100.341797 95.621 1.8042
100.708008 95.621 1.8108
101.074219 95.621 1.8175
101.440430 95.621 1.8242
101.806641 95.621 1.8309
102.172852 95.621 1.8375
102.539062 95.621 1.8440
102.905273 95.621 1.8506
103.271484 95.622 1.8570
103.637695 95.622 1.8634
104.003906 95.622 1.8698
104.370117 95.622 1.8760
104.736328 95.622 1.8823
105.102539 95.622 1.8884
105.468750 95.622 1.8946
105.834961 95.623 1.9008
106.201172 95.623 1.9070
106.567383 95.623 1.9131
106.933594 95.623 1.9194
107.299805 95.623 1.9257
107.666016 95.623 1.9320
108.032227 95.624 1.9384
108.398438 95.624 1.9449
108.764648 95.624 1.9514
109.130859 95.624 1.9580
109.497070 95.624 1.9647
109.863281 95.625 1.9713
110.229492 95.625 1.9781
110.595703 95.625 1.9848
110.961914 95.625 1.9915
111.328125 95.625 1.9982
111.694336 95.625 2.0048
112.060547 95.625 2.0114
112.426758 95.626 2.0179
112.792969 95.626 2.0244
113.159180 95.626 2.0308
113.525391 95.626 2.0371
113.891602 95.626 2.0434
114.257812 95.626 2.0496
114.624023 95.626 2.0558
114.990234 95.627 2.0620
115.356445 95.627 2.0682
115.722656 95.627 2.0744
116.088867 95.627 2.0806
116.455078 95.627 2.0868
116.821289 95.627 2.0931
117.187500 95.628 2.0994
117.553711 95.628 2.1057
117.919922 95.628 2.1121
118.286133 95.628 2.1186
118.652344 95.628 2.1251
119.018555 95.629 2.1316
119.384766 95.629 2.1381
119.750977 95.629 2.1447
120.117188 95.629 2.1512
120.483398 95.629 2.1578
120.849609 95.630 2.1643
121.215820 95.630 2.1708
121.582031 95.630 2.1773
121.948242 95.630 2.1838
122.314453 95.630 2.1902
122.680664 95.630 2.1966
123.046875 95.631 2.2030
123.413086 95.631 2.2094
123.779297 95.631 2.2157
124.145508 95.631 2.2220
124.511719 95.631 2.2283
124.877930 95.631 2.2346
125.244141 95.632 2.2409
125.610352 95.632 2.2472
125.976562 95.632 2.2535
126.342773 95.632 2.2597
126.708984 95.632 2.2660
127.075195 95.632 2.2723
127.441406 95.633 2.2787
127.807617 95.633 2.2850
128.173828 95.633 2.2913
128.540039 95.633 2.2976
128.906250 95.633 2.3040
129.272461 95.634 2.3103
129.638672 95.634 2.3167
130.004883 95.634 2.3230
130.371094 95.634 2.3294
130.737305 95.634 2.3358
131.103516 95.635 2.3422
131.469727 95.635 2.3487
131.835938 95.635 2.3551
132.202148 95.635 2.3615
132.568359 95.635 2.3679
132.934570 95.636 2.3744
133.300781 95.636 2.3808
133.666992 95.636 2.3872
134.033203 95.636 2.3936
134.399414 95.636 2.3999
134.765625 95.636 2.4063
135.131836 95.637 2.4126
135.498047 95.637 2.4189
135.864258 95.637 2.4252
136.230469 95.637 2.4314
136.596680 95.637 2.4377
136.962891 95.638 2.4439
137.329102 95.638 2.4501
137.695312 95.638 2.4563
138.061523 95.638 2.4625
138.427734 95.638 2.4687
138.793945 95.639 2.4749
139.160156 95.639 2.4812
139.526367 95.639 2.4874
139.892578 95.639 2.4937
140.258789 95.639 2.5001
140.625000 95.640 2.5064
140.991211 95.640 2.5128
141.357422 95.640 2.5192
141.723633 95.640 2.5256
142.089844 95.640 2.5320
142.456055 95.641 2.5384
142.822266 95.641 2.5448
143.188477 95.641 2.5512
143.554688 95.641 2.5576
143.920898 95.641 2.5640
144.287109 95.642 2.5703
144.653320 95.642 2.5766
145.019531 95.642 2.5829
145.385742 95.642 2.5891
145.751953 95.642 2.5953
146.118164 95.643 2.6015
146.484375 95.643 2.6077
146.850586 95.643 2.6139
147.216797 95.643 2.6200
147.583008 95.643 2.6262
147.949219 95.644 2.6324
148.315430 95.644 2.6386
148.681641 95.644 2.6448
149.047852 95.644 2.6510
149.414062 95.645 2.6572
149.780273 95.645 2.6635
150.146484 95.645 2.6698
150.512695 95.645 2.6761
150.878906 95.645 2.6824
151.245117 95.646 2.6887
151.611328 95.646 2.6950
151.977539 95.646 2.7014
152.343750 95.646 2.7077
152.709961 95.646 2.7140
153.076172 95.647 2.7203
153.442383 95.647 2.7266
153.808594 95.647 2.7329
154.174805 95.647 2.7391
154.541016 95.648 2.7454
154.907227 95.648 2.7516
155.273438 95.648 2.7578
155.639648 95.648 2.7640
156.005859 95.648 2.7702
156.372070 95.649 2.7764
156.738281 95.649 2.7826
157.104492 95.649 2.7888
157.470703 95.649 2.7950
157.836914 95.649 2.8012
158.203125 95.650 2.8073
158.569336 95.650 2.8135
158.935547 95.650 2.8197
159.301758 95.650 2.8259
159.667969 95.651 2.8321
160.034180 95.651 2.8383
160.400391 95.651 2.8445
160.766602 95.651 2.8507
161.132812 95.652 2.8569
161.499023 95.652 2.8631
161.865234 95.652 2.8693
162.231445 95.652 2.8755
162.597656 95.652 2.8817
162.963867 95.653 2.8880
163.330078 95.653 2.8942
163.696289 95.653 2.9004
164.062500 95.653 2.9066
164.428711 95.654 2.9129
164.794922 95.654 2.9191
165.161133 95.654 2.9253
165.527344 95.654 2.9315
165.893555 95.655 2.9377
166.259766 95.655 2.9439
166.625977 95.655 2.9501
166.992188 95.655 2.9563
167.358398 95.655 2.9624
167.724609 95.656 2.9686
168.090820 95.656 2.9747
168.457031 95.656 2.9808
168.823242 95.656 2.9870
169.189453 95.657 2.9930
169.555664 95.657 2.9992
169.921875 95.657 3.0052
170.288086 95.657 3.0113
170.654297 95.658 3.0175
171.020508 95.658 3.0236
171.386719 95.658 3.0297
171.752930 95.658 3.0359
172.119141 95.658 3.0420
172.485352 95.659 3.0482
172.851562 95.659 3.0543
173.217773 95.659 3.0605
173.583984 95.659 3.0667
173.950195 95.660 3.0729
174.316406 95.660 3.0791
174.682617 95.660 3.0853
175.048828 95.660 3.0915
175.415039 95.661 3.0977
175.781250 95.661 3.1038
176.147461 95.661 3.1100
176.513672 95.661 3.1161
176.879883 95.662 3.1222
177.246094 95.662 3.1283
177.612305 95.662 3.1344
177.978516 95.662 3.1405
178.344727 95.663 3.1465
178.710938 95.663 3.1526
179.077148 95.663 3.1587
179.443359 95.663 3.1647
179.809570 95.664 3.1708
180.175781 95.664 3.1768
180.541992 95.664 3.1829
180.908203 95.664 3.1889
181.274414 95.665 3.1950
181.640625 95.665 3.2011
182.006836 95.665 3.2072
182.373047 95.665 3.2133
182.739258 95.666 3.2195
183.105469 95.666 3.2256
183.471680 95.666 3.2317
183.837891 95.666 3.2378
184.204102 95.667 3.2439
184.570312 95.667 3.2500
184.936523 95.667 3.2562
185.302734 95.667 3.2623
185.668945 95.668 3.2683
186.035156 95.668 3.2744
186.401367 95.668 3.2805
186.767578 95.668 3.2866
187.133789 95.669 3.2926
187.500000 95.669 3.2987
187.866211 95.669 3.3047
188.232422 95.669 3.3108
188.598633 95.670 3.3168
188.964844 95.670 3.3228
189.331055 95.670 3.3288
189.697266 95.670 3.3349
190.063477 95.671 3.3409
190.429688 95.671 3.3469
190.795898 95.671 3.3529
191.162109 95.671 3.3590
191.528320 95.672 3.3650
191.894531 95.672 3.3710
192.260742 95.672 3.3770
192.626953 95.672 3.3831
192.993164 95.673 3.3891
193.359375 95.673 3.3951
193.725586 95.673 3.4011
194.091797 95.674 3.4072
194.458008 95.674 3.4132
194.824219 95.674 3.4192
195.190430 95.674 3.4253
195.556641 95.675 3.4313
195.922852 95.675 3.4373
196.289062 95.675 3.4434
196.655273 95.675 3.4494
197.021484 95.676 3.4554
197.387695 95.676 3.4614
197.753906 95.676 3.4675
198.120117 95.676 3.4735
198.486328 95.677 3.4795
198.852539 95.677 3.4855
199.218750 95.677 3.4915
199.584961 95.678 3.4974
199.951172 95.678 3.5034
200.317383 95.678 3.5094
200.683594 95.678 3.5153
201.049805 95.679 3.5213
201.416016 95.679 3.5272
201.782227 95.679 3.5331
202.148438 95.679 3.5391
202.514648 95.680 3.5450
202.880859 95.680 3.5510
203.247070 95.680 3.5569
203.613281 95.680 3.5629
203.979492 95.681 3.5689
204.345703 95.681 3.5748
204.711914 95.681 3.5808
205.078125 95.682 3.5868
205.444336 95.682 3.5928
205.810547 95.682 3.5988
206.176758 95.682 3.6047
206.542969 95.683 3.6107
206.909180 95.683 3.6167
207.275391 95.683 3.6227
207.641602 95.684 3.6286
208.007812 95.684 3.6346
208.374023 95.684 3.6405
208.740234 95.684 3.6465
209.106445 95.685 3.6524
209.472656 95.685 3.6583
209.838867 95.685 3.6642
210.205078 95.685 3.6701
210.571289 95.686 3.6760
210.937500 95.686 3.6819
211.303711 95.686 3.6878
211.669922 95.687 3.6937
212.036133 95.687 3.6995
212.402344 95.687 3.7054
212.768555 95.687 3.7113
213.134766 95.688 3.7172
213.500977 95.688 3.7231
213.867188 95.688 3.7290
214.233398 95.689 3.7349
214.599609 95.689 3.7409
214.965820 95.689 3.7468
215.332031 95.689 3.7527
215.698242 95.690 3.7586
216.064453 95.690 3.7645
216.430664 95.690 3.7704
216.796875 95.691 3.7763
217.163086 95.691 3.7822
217.529297 95.691 3.7881
217.895508 95.691 3.7940
218.261719 95.692 3.7999
218.627930 95.692 3.8058
218.994141 95.692 3.8116
219.360352 95.693 3.8175
219.726562 95.693 3.8233
220.092773 95.693 3.8292
220.458984 95.693 3.8350
220.825195 95.694 3.8409
221.191406 95.694 3.8467
221.557617 95.694 3.8526
221.923828 95.695 3.8584
222.290039 95.695 3.8642
222.656250 95.695 3.8701
223.022461 95.695 3.8759
223.388672 95.696 3.8817
223.754883 95.696 3.8876
224.121094 95.696 3.8934
224.487305 95.697 3.8992
224.853516 95.697 3.9051
225.219727 95.697 3.9109
225.585938 95.698 3.9167
225.952148 95.698 3.9226
226.318359 95.698 3.9284
226.684570 95.698 3.9342
227.050781 95.699 3.9400
227.416992 95.699 3.9459
227.783203 95.699 3.9517
228.149414 95.700 3.9575
228.515625 95.700 3.9633
228.881836 95.700 3.9692
229.248047 95.701 3.9750
229.614258 95.701 3.9808
229.980469 95.701 3.9866
230.346680 95.701 3.9924
230.712891 95.702 3.9982
231.079102 95.702 4.0040
231.445312 95.702 4.0098
231.811523 95.703 4.0155
232.177734 95.703 4.0213
232.543945 95.703 4.0271
232.910156 95.703 4.0329
233.276367 95.704 4.0386
233.642578 95.704 4.0443
234.008789 95.704 4.0501
234.375000 95.705 4.0559
234.741211 95.705 4.0616
235.107422 95.705 4.0674
235.473633 95.706 4.0731
235.839844 95.706 4.0789
236.206055 95.706 4.0847
236.572266 95.707 4.0904
236.938477 95.707 4.0962
237.304688 95.707 4.1020
237.670898 95.707 4.1077
238.037109 95.708 4.1135
238.403320 95.708 4.1193
238.769531 95.708 4.1250
239.135742 95.709 4.1308
239.501953 95.709 4.1365
239.868164 95.709 4.1423
240.234375 95.710 4.1480
240.600586 95.710 4.1538
240.966797 95.710 4.1595
241.333008 95.711 4.1652
241.699219 95.711 4.1709
242.065430 95.711 4.1766
242.431641 95.711 4.1823
242.797852 95.712 4.1880
243.164062 95.712 4.1937
243.530273 95.712 4.1994
243.896484 95.713 4.2051
244.262695 95.713 4.2108
244.628906 95.713 4.2165
244.995117 95.714 4.2221
245.361328 95.714 4.2278
245.727539 95.714 4.2335
246.093750 95.715 4.2392
246.459961 95.715 4.2449
246.826172 95.715 4.2507
247.192383 95.715 4.2563
247.558594 95.716 4.2620
247.924805 95.716 4.2677
248.291016 95.716 4.2734
248.657227 95.717 4.2791
249.023438 95.717 4.2848
249.389648 95.717 4.2905
249.755859 95.718 4.2962
250.122070 95.718 4.3018
250.488281 95.718 4.3075
250.854492 95.719 4.3132
251.220703 95.719 4.3188
251.586914 95.719 4.3245
251.953125 95.720 4.3301
252.319336 95.720 4.3357
252.685547 95.720 4.3414
253.051758 95.721 4.3470
253.417969 95.721 4.3527
253.784180 95.721 4.3583
254.150391 95.722 4.3639
254.516602 95.722 4.3696
254.882812 95.722 4.3752
255.249023 95.722 4.3808
255.615234 95.723 4.3864
255.981445 95.723 4.3921
256.347656 95.723 4.3977
256.713867 95.724 4.4033
257.080078 95.724 4.4089
257.446289 95.724 4.4145
257.812500 95.725 4.4202
258.178711 95.725 4.4258
258.544922 95.725 4.4314
258.911133 95.726 4.4370
259.277344 95.726 4.4426
259.643555 95.726 4.4482
260.009766 95.727 4.4538
260.375977 95.727 4.4594
260.742188 95.727 4.4650
261.108398 95.728 4.4706
261.474609 95.728 4.4762
261.840820 95.728 4.4818
262.207031 95.729 4.4874
262.573242 95.729 4.4930
262.939453 95.729 4.4986
263.305664 95.730 4.5041
263.671875 95.730 4.5097
264.038086 95.730 4.5153
264.404297 95.731 4.5208
264.770508 95.731 4.5264
265.136719 95.731 4.5319
265.502930 95.732 4.5375
265.869141 95.732 4.5430
266.235352 95.732 4.5486
266.601562 95.733 4.5541
266.967773 95.733 4.5597
267.333984 95.733 4.5652
267.700195 95.734 4.5707
268.066406 95.734 4.5763
268.432617 95.734 4.5818
268.798828 95.735 4.5874
269.165039 95.735 4.5929
269.531250 95.735 4.5985
269.897461 95.736 4.6040
270.263672 95.736 4.6096
270.629883 95.736 4.6151
270.996094 95.737 4.6206
271.362305 95.737 4.6262
271.728516 95.737 4.6317
272.094727 95.738 4.6372
272.460938 95.738 4.6427
272.827148 95.738 4.6482
273.193359 95.739 4.6537
273.559570 95.739 4.6592
273.925781 95.739 4.6647
274.291992 95.740 4.6702
274.658203 95.740 4.6757
275.024414 95.740 4.6812
275.390625 95.741 4.6867
275.756836 95.741 4.6921
276.123047 95.741 4.6976
276.489258 95.742 4.7031
276.855469 95.742 4.7086
277.221680 95.742 4.7141
277.587891 95.743 4.7195
277.954102 95.743 4.7250
278.320312 95.743 4.7305
278.686523 95.744 4.7360
279.052734 95.744 4.7414
279.418945 95.744 4.7469
279.785156 95.745 4.7524
280.151367 95.745 4.7578
280.517578 95.745 4.7633
280.883789 95.746 4.7688
281.250000 95.746 4.7742
281.616211 95.746 4.7797
281.982422 95.747 4.7851
282.348633 95.747 4.7906
282.714844 95.747 4.7960
283.081055 95.748 4.8015
283.447266 95.748 4.8069
283.813477 95.748 4.8123
284.179688 95.749 4.8177
284.545898 95.749 4.8232
284.912109 95.749 4.8286
285.278320 95.750 4.8340
285.644531 95.750 4.8394
286.010742 95.750 4.8448
286.376953 95.751 4.8502
286.743164 95.751 4.8557
287.109375 95.751 4.8611
287.475586 95.752 4.8665
287.841797 95.752 4.8719
288.208008 95.752 4.8773
288.574219 95.753 4.8827
288.940430 95.753 4.8881
289.306641 95.754 4.8934
289.672852 95.754 4.8989
290.039062 95.754 4.9042
290.405273 95.755 4.9096
290.771484 95.755 4.9150
291.137695 95.755 4.9204
291.503906 95.756 4.9258
291.870117 95.756 4.9312
292.236328 95.756 4.9365
292.602539 95.757 4.9419
292.968750 95.757 4.9473
293.334961 95.757 4.9527
293.701172 95.758 4.9581
294.067383 95.758 4.9634
294.433594 95.758 4.9688
294.799805 95.759 4.9741
295.166016 95.759 4.9795
295.532227 95.759 4.9848
295.898438 95.760 4.9902
296.264648 95.760 4.9955
296.630859 95.760 5.0008
296.997070 95.761 5.0061
297.363281 95.761 5.0115
297.729492 95.762 5.0168
298.095703 95.762 5.0221
298.461914 95.762 5.0274
298.828125 95.763 5.0328
299.194336 95.763 5.0381
299.560547 95.763 5.0434
299.926758 95.764 5.0487
300.292969 95.764 5.0540
300.659180 95.764 5.0594
301.025391 95.765 5.0647
301.391602 95.765 5.0700
301.757812 95.765 5.0753
302.124023 95.766 5.0806
302.490234 95.766 5.0859
302.856445 95.766 5.0912
303.222656 95.767 5.0966
303.588867 95.767 5.1019
303.955078 95.768 5.1071
304.321289 95.768 5.1124
304.687500 95.768 5.1177
305.053711 95.769 5.1230
305.419922 95.769 5.1283
305.786133 95.769 5.1335
306.152344 95.770 5.1388
306.518555 95.770 5.1441
306.884766 95.770 5.1493
307.250977 95.771 5.1546
307.617188 95.771 5.1598
307.983398 95.771 5.1651
308.349609 95.772 5.1704
308.715820 95.772 5.1756
309.082031 95.773 5.1809
309.448242 95.773 5.1861
309.814453 95.773 5.1913
310.180664 95.774 5.1966
310.546875 95.774 5.2018
310.913086 95.774 5.2071
311.279297 95.775 5.2123
311.645508 95.775 5.2176
312.011719 95.775 5.2228
312.377930 95.776 5.2281
312.744141 95.776 5.2333
313.110352 95.776 5.2385
313.476562 95.777 5.2437
313.842773 95.777 5.2490
314.208984 95.778 5.2542
314.575195 95.778 5.2594
314.941406 95.778 5.2646
315.307617 95.779 5.2698
