* Freq(Hz) SPL(dB) Phase(degrees)
20.141602 96.307 -0.2278
20.507812 96.323 -0.0710
20.874023 96.328 0.1208
21.240234 96.325 0.3075
21.606445 96.317 0.4603
21.972656 96.304 0.5684
22.338867 96.287 0.6349
22.705078 96.268 0.6674
23.071289 96.249 0.6709
23.437500 96.233 0.6466
23.803711 96.221 0.5957
24.169922 96.211 0.5234
24.536133 96.206 0.4388
24.902344 96.203 0.3526
25.268555 96.204 0.2730
25.634766 96.209 0.2044
26.000977 96.216 0.1492
26.367188 96.226 0.1089
26.733398 96.236 0.0856
27.099609 96.246 0.0807
27.465820 96.255 0.0943
27.832031 96.264 0.1240
28.198242 96.271 0.1661
28.564453 96.277 0.2167
28.930664 96.280 0.2720
29.296875 96.281 0.3287
29.663086 96.280 0.3838
30.029297 96.277 0.4341
30.395508 96.273 0.4768
30.761719 96.267 0.5099
31.127930 96.261 0.5321
31.494141 96.255 0.5431
31.860352 96.248 0.5433
32.226562 96.243 0.5335
32.592773 96.238 0.5155
32.958984 96.234 0.4912
33.325195 96.232 0.4630
33.691406 96.231 0.4331
34.057617 96.231 0.4037
34.423828 96.233 0.3770
34.790039 96.236 0.3548
35.156250 96.239 0.3386
35.522461 96.243 0.3293
35.888672 96.247 0.3274
36.254883 96.252 0.3326
36.621094 96.255 0.3445
36.987305 96.259 0.3620
37.353516 96.262 0.3842
37.719727 96.263 0.4095
38.085938 96.264 0.4365
38.452148 96.265 0.4636
38.818359 96.264 0.4895
39.184570 96.262 0.5127
39.550781 96.260 0.5325
39.916992 96.258 0.5479
40.283203 96.255 0.5586
40.649414 96.252 0.5646
41.015625 96.250 0.5660
41.381836 96.247 0.5633
41.748047 96.245 0.5574
42.114258 96.244 0.5489
42.480469 96.243 0.5388
42.846680 96.243 0.5283
43.212891 96.243 0.5181
43.579102 96.244 0.5094
43.945312 96.245 0.5027
44.311523 96.246 0.4985
44.677734 96.248 0.4973
45.043945 96.250 0.4992
45.410156 96.252 0.5040
45.776367 96.253 0.5117
46.142578 96.255 0.5217
46.508789 96.256 0.5335
46.875000 96.257 0.5466
47.241211 96.257 0.5604
47.607422 96.257 0.5742
47.973633 96.257 0.5874
48.339844 96.257 0.5995
48.706055 96.256 0.6103
49.072266 96.255 0.6193
49.438477 96.254 0.6266
49.804688 96.253 0.6319
50.170898 96.252 0.6356
50.537109 96.251 0.6376
50.903320 96.250 0.6383
51.269531 96.249 0.6381
51.635742 96.249 0.6373
52.001953 96.249 0.6362
52.368164 96.249 0.6353
52.734375 96.249 0.6347
53.100586 96.250 0.6349
53.466797 96.250 0.6358
53.833008 96.251 0.6378
54.199219 96.251 0.6408
54.565430 96.252 0.6448
54.931641 96.253 0.6497
55.297852 96.253 0.6554
55.664062 96.254 0.6617
56.030273 96.254 0.6686
56.396484 96.254 0.6757
56.762695 96.254 0.6829
57.128906 96.254 0.6900
57.495117 96.254 0.6970
57.861328 96.254 0.7037
58.227539 96.254 0.7099
58.593750 96.254 0.7157
58.959961 96.254 0.7211
59.326172 96.253 0.7260
59.692383 96.253 0.7305
60.058594 96.253 0.7347
60.424805 96.253 0.7386
60.791016 96.253 0.7422
61.157227 96.252 0.7456
61.523438 96.252 0.7490
61.889648 96.252 0.7523
62.255859 96.252 0.7555
62.622070 96.252 0.7588
62.988281 96.252 0.7622
63.354492 96.253 0.7657
63.720703 96.253 0.7692
64.086914 96.253 0.7729
64.453125 96.253 0.7767
64.819336 96.253 0.7806
65.185547 96.253 0.7847
65.551758 96.253 0.7889
65.917969 96.254 0.7932
66.284180 96.254 0.7978
66.650391 96.254 0.8024
67.016602 96.254 0.8073
67.382812 96.254 0.8122
67.749023 96.254 0.8174
68.115234 96.254 0.8226
68.481445 96.255 0.8279
68.847656 96.255 0.8333
69.213867 96.255 0.8386
69.580078 96.255 0.8440
69.946289 96.255 0.8492
70.312500 96.254 0.8543
70.678711 96.254 0.8593
71.044922 96.254 0.8640
71.411133 96.254 0.8686
71.777344 96.254 0.8729
72.143555 96.254 0.8769
72.509766 96.254 0.8808
72.875977 96.254 0.8844
73.242188 96.254 0.8879
73.608398 96.254 0.8913
73.974609 96.254 0.8947
74.340820 96.254 0.8980
74.707031 96.254 0.9015
75.073242 96.254 0.9050
75.439453 96.254 0.9087
75.805664 96.254 0.9127
76.171875 96.255 0.9169
76.538086 96.255 0.9213
76.904297 96.255 0.9259
77.270508 96.255 0.9308
77.636719 96.255 0.9359
78.002930 96.256 0.9411
78.369141 96.256 0.9465
78.735352 96.256 0.9518
79.101562 96.256 0.9572
79.467773 96.256 0.9625
79.833984 96.256 0.9676
80.200195 96.256 0.9726
80.566406 96.256 0.9774
80.932617 96.255 0.9821
81.298828 96.255 0.9865
81.665039 96.255 0.9907
82.031250 96.255 0.9947
82.397461 96.255 0.9986
82.763672 96.255 1.0024
83.129883 96.255 1.0060
83.496094 96.255 1.0097
83.862305 96.255 1.0134
84.228516 96.255 1.0171
84.594727 96.255 1.0209
84.960938 96.256 1.0248
85.327148 96.256 1.0289
85.693359 96.256 1.0331
86.059570 96.256 1.0375
86.425781 96.256 1.0420
86.791992 96.256 1.0466
87.158203 96.256 1.0513
87.524414 96.257 1.0561
87.890625 96.257 1.0610
88.256836 96.257 1.0658
88.623047 96.257 1.0707
88.989258 96.257 1.0755
89.355469 96.257 1.0803
89.721680 96.257 1.0850
90.087891 96.257 1.0896
90.454102 96.257 1.0942
90.820312 96.257 1.0986
91.186523 96.257 1.1031
91.552734 96.257 1.1074
91.918945 96.257 1.1117
92.285156 96.257 1.1159
92.651367 96.257 1.1201
93.017578 96.257 1.1243
93.383789 96.257 1.1284
93.750000 96.257 1.1326
94.116211 96.257 1.1368
94.482422 96.257 1.1410
94.848633 96.257 1.1451
95.214844 96.257 1.1494
95.581055 96.257 1.1536
95.947266 96.257 1.1578
96.313477 96.257 1.1621
96.679688 96.258 1.1664
97.045898 96.258 1.1707
97.412109 96.258 1.1751
97.778320 96.258 1.1795
98.144531 96.258 1.1839
98.510742 96.258 1.1884
98.876953 96.258 1.1929
99.243164 96.258 1.1974
99.609375 96.258 1.2020
99.975586 96.258 1.2066
100.341797 96.258 1.2112
100.708008 96.258 1.2158
101.074219 96.258 1.2204
101.440430 96.259 1.2250
101.806641 96.259 1.2295
102.172852 96.259 1.2341
102.539062 96.259 1.2386
102.905273 96.259 1.2430
103.271484 96.259 1.2474
103.637695 96.259 1.2517
104.003906 96.259 1.2559
104.370117 96.259 1.2601
104.736328 96.259 1.2643
105.102539 96.259 1.2684
105.468750 96.259 1.2725
105.834961 96.259 1.2766
106.201172 96.259 1.2807
106.567383 96.259 1.2848
106.933594 96.259 1.2889
107.299805 96.259 1.2932
107.666016 96.259 1.2974
108.032227 96.259 1.3018
108.398438 96.260 1.3062
108.764648 96.260 1.3107
109.130859 96.260 1.3152
109.497070 96.260 1.3198
109.863281 96.260 1.3244
110.229492 96.260 1.3290
110.595703 96.260 1.3337
110.961914 96.260 1.3383
111.328125 96.260 1.3430
111.694336 96.260 1.3475
112.060547 96.260 1.3521
112.426758 96.260 1.3565
112.792969 96.260 1.3609
113.159180 96.260 1.3653
113.525391 96.260 1.3695
113.891602 96.260 1.3738
114.257812 96.260 1.3779
114.624023 96.261 1.3821
114.990234 96.261 1.3862
115.356445 96.261 1.3903
115.722656 96.261 1.3945
116.088867 96.261 1.3986
116.455078 96.261 1.4028
116.821289 96.261 1.4070
117.187500 96.261 1.4113
117.553711 96.261 1.4156
117.919922 96.261 1.4200
118.286133 96.261 1.4244
118.652344 96.261 1.4288
119.018555 96.262 1.4333
119.384766 96.262 1.4378
119.750977 96.262 1.4423
120.117188 96.262 1.4468
120.483398 96.262 1.4513
120.849609 96.262 1.4558
121.215820 96.262 1.4603
121.582031 96.262 1.4648
121.948242 96.262 1.4692
122.314453 96.262 1.4736
122.680664 96.262 1.4780
123.046875 96.262 1.4823
123.413086 96.262 1.4866
123.779297 96.262 1.4909
124.145508 96.262 1.4952
124.511719 96.263 1.4995
124.877930 96.263 1.5037
125.244141 96.263 1.5080
125.610352 96.263 1.5123
125.976562 96.263 1.5165
126.342773 96.263 1.5208
126.708984 96.263 1.5251
127.075195 96.263 1.5294
127.441406 96.263 1.5337
127.807617 96.263 1.5380
128.173828 96.263 1.5423
128.540039 96.263 1.5466
128.906250 96.263 1.5509
129.272461 96.264 1.5552
129.638672 96.264 1.5596
130.004883 96.264 1.5639
130.371094 96.264 1.5683
130.737305 96.264 1.5727
131.103516 96.264 1.5771
131.469727 96.264 1.5815
131.835938 96.264 1.5859
132.202148 96.264 1.5903
132.568359 96.264 1.5948
132.934570 96.264 1.5992
133.300781 96.264 1.6036
133.666992 96.264 1.6080
134.033203 96.265 1.6124
134.399414 96.265 1.6168
134.765625 96.265 1.6211
135.131836 96.265 1.6254
135.498047 96.265 1.6297
135.864258 96.265 1.6340
136.230469 96.265 1.6383
136.596680 96.265 1.6425
136.962891 96.265 1.6467
137.329102 96.265 1.6509
137.695312 96.265 1.6552
138.061523 96.265 1.6594
138.427734 96.265 1.6636
138.793945 96.265 1.6678
139.160156 96.266 1.6721
139.526367 96.266 1.6764
139.892578 96.266 1.6807
140.258789 96.266 1.6850
140.625000 96.266 1.6894
140.991211 96.266 1.6938
141.357422 96.266 1.6982
141.723633 96.266 1.7026
142.089844 96.266 1.7071
142.456055 96.266 1.7115
142.822266 96.267 1.7160
143.188477 96.267 1.7204
143.554688 96.267 1.7248
143.920898 96.267 1.7292
144.287109 96.267 1.7335
144.653320 96.267 1.7379
145.019531 96.267 1.7422
145.385742 96.267 1.7465
145.751953 96.267 1.7507
146.118164 96.267 1.7549
146.484375 96.267 1.7591
146.850586 96.267 1.7633
147.216797 96.267 1.7676
147.583008 96.267 1.7718
147.949219 96.268 1.7760
148.315430 96.268 1.7802
148.681641 96.268 1.7845
149.047852 96.268 1.7887
149.414062 96.268 1.7930
149.780273 96.268 1.7973
150.146484 96.268 1.8017
150.512695 96.268 1.8060
150.878906 96.268 1.8104
151.245117 96.268 1.8147
151.611328 96.269 1.8191
151.977539 96.269 1.8235
152.343750 96.269 1.8279
152.709961 96.269 1.8322
153.076172 96.269 1.8366
153.442383 96.269 1.8409
153.808594 96.269 1.8453
154.174805 96.269 1.8496
154.541016 96.269 1.8539
154.907227 96.269 1.8582
155.273438 96.269 1.8625
155.639648 96.269 1.8668
156.005859 96.270 1.8710
156.372070 96.270 1.8753
156.738281 96.270 1.8795
157.104492 96.270 1.8838
157.470703 96.270 1.8880
157.836914 96.270 1.8923
158.203125 96.270 1.8966
158.569336 96.270 1.9008
158.935547 96.270 1.9051
159.301758 96.270 1.9093
159.667969 96.270 1.9136
160.034180 96.271 1.9179
160.400391 96.271 1.9222
160.766602 96.271 1.9264
161.132812 96.271 1.9307
161.499023 96.271 1.9350
161.865234 96.271 1.9393
162.231445 96.271 1.9436
162.597656 96.271 1.9479
162.963867 96.271 1.9522
163.330078 96.271 1.9566
163.696289 96.271 1.9609
164.062500 96.272 1.9652
164.428711 96.272 1.9695
164.794922 96.272 1.9738
165.161133 96.272 1.9782
165.527344 96.272 1.9825
165.893555 96.272 1.9868
166.259766 96.272 1.9911
166.625977 96.272 1.9954
166.992188 96.272 1.9996
167.358398 96.272 2.0039
167.724609 96.272 2.0081
168.090820 96.273 2.0124
168.457031 96.273 2.0166
168.823242 96.273 2.0208
169.189453 96.273 2.0250
169.555664 96.273 2.0293
169.921875 96.273 2.0335
170.288086 96.273 2.0377
170.654297 96.273 2.0419
171.020508 96.273 2.0461
171.386719 96.273 2.0504
171.752930 96.274 2.0546
172.119141 96.274 2.0589
172.485352 96.274 2.0632
172.851562 96.274 2.0675
173.217773 96.274 2.0718
173.583984 96.274 2.0761
173.950195 96.274 2.0805
174.316406 96.274 2.0848
174.682617 96.274 2.0891
175.048828 96.274 2.0934
175.415039 96.275 2.0977
175.781250 96.275 2.1020
176.147461 96.275 2.1063
176.513672 96.275 2.1106
176.879883 96.275 2.1148
177.246094 96.275 2.1191
177.612305 96.275 2.1233
177.978516 96.275 2.1275
178.344727 96.275 2.1317
178.710938 96.275 2.1359
179.077148 96.275 2.1401
179.443359 96.276 2.1443
179.809570 96.276 2.1485
180.175781 96.276 2.1527
180.541992 96.276 2.1569
180.908203 96.276 2.1611
181.274414 96.276 2.1654
181.640625 96.276 2.1696
182.006836 96.276 2.1739
182.373047 96.276 2.1782
182.739258 96.277 2.1824
183.105469 96.277 2.1867
183.471680 96.277 2.1910
183.837891 96.277 2.1953
184.204102 96.277 2.1996
184.570312 96.277 2.2038
184.936523 96.277 2.2081
185.302734 96.277 2.2124
185.668945 96.277 2.2166
186.035156 96.277 2.2209
186.401367 96.278 2.2251
186.767578 96.278 2.2294
187.133789 96.278 2.2336
187.500000 96.278 2.2378
187.866211 96.278 2.2420
188.232422 96.278 2.2462
188.598633 96.278 2.2505
188.964844 96.278 2.2547
189.331055 96.278 2.2589
189.697266 96.278 2.2631
190.063477 96.279 2.2673
190.429688 96.279 2.2715
190.795898 96.279 2.2757
191.162109 96.279 2.2799
191.528320 96.279 2.2841
191.894531 96.279 2.2884
192.260742 96.279 2.2926
192.626953 96.279 2.2968
192.993164 96.279 2.3010
193.359375 96.280 2.3053
193.725586 96.280 2.3095
194.091797 96.280 2.3137
194.458008 96.280 2.3179
194.824219 96.280 2.3222
195.190430 96.280 2.3264
195.556641 96.280 2.3307
195.922852 96.280 2.3349
196.289062 96.280 2.3391
196.655273 96.281 2.3434
197.021484 96.281 2.3476
197.387695 96.281 2.3518
197.753906 96.281 2.3561
198.120117 96.281 2.3603
198.486328 96.281 2.3645
198.852539 96.281 2.3687
199.218750 96.281 2.3729
199.584961 96.281 2.3771
199.951172 96.282 2.3813
200.317383 96.282 2.3855
200.683594 96.282 2.3897
201.049805 96.282 2.3938
201.416016 96.282 2.3980
201.782227 96.282 2.4022
202.148438 96.282 2.4064
202.514648 96.282 2.4105
202.880859 96.282 2.4147
203.247070 96.283 2.4189
203.613281 96.283 2.4231
203.979492 96.283 2.4273
204.345703 96.283 2.4315
204.711914 96.283 2.4357
205.078125 96.283 2.4400
205.444336 96.283 2.4442
205.810547 96.283 2.4484
206.176758 96.283 2.4527
206.542969 96.284 2.4569
206.909180 96.284 2.4611
207.275391 96.284 2.4653
207.641602 96.284 2.4696
208.007812 96.284 2.4738
208.374023 96.284 2.4780
208.740234 96.284 2.4821
209.106445 96.284 2.4863
209.472656 96.284 2.4905
209.838867 96.285 2.4947
210.205078 96.285 2.4988
210.571289 96.285 2.5030
210.937500 96.285 2.5071
211.303711 96.285 2.5113
211.669922 96.285 2.5154
212.036133 96.285 2.5196
212.402344 96.285 2.5237
212.768555 96.286 2.5279
213.134766 96.286 2.5321
213.500977 96.286 2.5363
213.867188 96.286 2.5404
214.233398 96.286 2.5446
214.599609 96.286 2.5488
214.965820 96.286 2.5530
215.332031 96.286 2.5572
215.698242 96.286 2.5614
216.064453 96.287 2.5656
216.430664 96.287 2.5698
216.796875 96.287 2.5740
217.163086 96.287 2.5782
217.529297 96.287 2.5824
217.895508 96.287 2.5865
218.261719 96.287 2.5907
218.627930 96.287 2.5949
218.994141 96.288 2.5990
219.360352 96.288 2.6032
219.726562 96.288 2.6074
220.092773 96.288 2.6115
220.458984 96.288 2.6157
220.825195 96.288 2.6198
221.191406 96.288 2.6240
221.557617 96.288 2.6281
221.923828 96.288 2.6322
222.290039 96.289 2.6364
222.656250 96.289 2.6405
223.022461 96.289 2.6447
223.388672 96.289 2.6488
223.754883 96.289 2.6530
224.121094 96.289 2.6571
224.487305 96.289 2.6613
224.853516 96.289 2.6654
225.219727 96.290 2.6696
225.585938 96.290 2.6737
225.952148 96.290 2.6779
226.318359 96.290 2.6821
226.684570 96.290 2.6862
227.050781 96.290 2.6904
227.416992 96.290 2.6945
227.783203 96.290 2.6987
228.149414 96.291 2.7028
228.515625 96.291 2.7070
228.881836 96.291 2.7112
229.248047 96.291 2.7153
229.614258 96.291 2.7195
229.980469 96.291 2.7236
230.346680 96.291 2.7278
230.712891 96.291 2.7319
231.079102 96.292 2.7360
231.445312 96.292 2.7402
231.811523 96.292 2.7443
232.177734 96.292 2.7484
232.543945 96.292 2.7525
232.910156 96.292 2.7566
233.276367 96.292 2.7608
233.642578 96.292 2.7649
234.008789 96.293 2.7690
234.375000 96.293 2.7731
234.741211 96.293 2.7772
235.107422 96.293 2.7813
235.473633 96.293 2.7854
235.839844 96.293 2.7896
236.206055 96.293 2.7937
236.572266 96.293 2.7978
236.938477 96.294 2.8020
237.304688 96.294 2.8061
237.670898 96.294 2.8103
238.037109 96.294 2.8144
238.403320 96.294 2.8185
238.769531 96.294 2.8227
239.135742 96.294 2.8268
239.501953 96.294 2.8310
239.868164 96.295 2.8351
240.234375 96.295 2.8392
240.600586 96.295 2.8433
240.966797 96.295 2.8474
241.333008 96.295 2.8515
241.699219 96.295 2.8556
242.065430 96.295 2.8597
242.431641 96.295 2.8638
242.797852 96.296 2.8679
243.164062 96.296 2.8720
243.530273 96.296 2.8761
243.896484 96.296 2.8802
244.262695 96.296 2.8842
244.628906 96.296 2.8883
244.995117 96.296 2.8925
245.361328 96.297 2.8966
245.727539 96.297 2.9007
246.093750 96.297 2.9048
246.459961 96.297 2.9089
246.826172 96.297 2.9130
247.192383 96.297 2.9171
247.558594 96.297 2.9212
247.924805 96.297 2.9253
248.291016 96.298 2.9294
248.657227 96.298 2.9335
249.023438 96.298 2.9376
249.389648 96.298 2.9417
249.755859 96.298 2.9459
250.122070 96.298 2.9499
250.488281 96.298 2.9540
250.854492 96.298 2.9581
251.220703 96.299 2.9622
251.586914 96.299 2.9663
251.953125 96.299 2.9704
252.319336 96.299 2.9744
252.685547 96.299 2.9785
253.051758 96.299 2.9826
253.417969 96.299 2.9867
253.784180 96.300 2.9907
254.150391 96.300 2.9948
254.516602 96.300 2.9989
254.882812 96.300 3.0030
255.249023 96.300 3.0070
255.615234 96.300 3.0111
255.981445 96.300 3.0152
256.347656 96.300 3.0193
256.713867 96.301 3.0233
257.080078 96.301 3.0274
257.446289 96.301 3.0315
257.812500 96.301 3.0356
258.178711 96.301 3.0396
258.544922 96.301 3.0437
258.911133 96.301 3.0478
259.277344 96.302 3.0518
259.643555 96.302 3.0559
260.009766 96.302 3.0600
260.375977 96.302 3.0641
260.742188 96.302 3.0682
261.108398 96.302 3.0722
261.474609 96.302 3.0763
261.840820 96.303 3.0804
262.207031 96.303 3.0844
262.573242 96.303 3.0885
262.939453 96.303 3.0925
263.305664 96.303 3.0966
263.671875 96.303 3.1007
264.038086 96.303 3.1047
264.404297 96.303 3.1087
264.770508 96.304 3.1128
265.136719 96.304 3.1168
265.502930 96.304 3.1209
265.869141 96.304 3.1249
266.235352 96.304 3.1289
266.601562 96.304 3.1330
266.967773 96.304 3.1370
267.333984 96.305 3.1411
267.700195 96.305 3.1451
268.066406 96.305 3.1492
268.432617 96.305 3.1532
268.798828 96.305 3.1572
269.165039 96.305 3.1613
269.531250 96.305 3.1654
269.897461 96.306 3.1694
270.263672 96.306 3.1735
270.629883 96.306 3.1775
270.996094 96.306 3.1816
271.362305 96.306 3.1856
271.728516 96.306 3.1897
272.094727 96.306 3.1937
272.460938 96.307 3.1977
272.827148 96.307 3.2018
273.193359 96.307 3.2058
273.559570 96.307 3.2098
273.925781 96.307 3.2138
274.291992 96.307 3.2179
274.658203 96.307 3.2219
275.024414 96.308 3.2259
275.390625 96.308 3.2299
275.756836 96.308 3.2339
276.123047 96.308 3.2379
276.489258 96.308 3.2419
276.855469 96.308 3.2460
277.221680 96.308 3.2500
277.587891 96.309 3.2540
277.954102 96.309 3.2580
278.320312 96.309 3.2620
278.686523 96.309 3.2661
279.052734 96.309 3.2701
279.418945 96.309 3.2741
279.785156 96.309 3.2781
280.151367 96.310 3.2822
280.517578 96.310 3.2862
280.883789 96.310 3.2902
281.250000 96.310 3.2942
281.616211 96.310 3.2983
281.982422 96.310 3.3023
282.348633 96.310 3.3063
282.714844 96.311 3.3103
283.081055 96.311 3.3143
283.447266 96.311 3.3183
283.813477 96.311 3.3223
284.179688 96.311 3.3263
284.545898 96.311 3.3303
284.912109 96.311 3.3343
285.278320 96.312 3.3383
285.644531 96.312 3.3422
286.010742 96.312 3.3463
286.376953 96.312 3.3502
286.743164 96.312 3.3542
287.109375 96.312 3.3582
287.475586 96.312 3.3622
287.841797 96.313 3.3662
288.208008 96.313 3.3702
288.574219 96.313 3.3742
288.940430 96.313 3.3782
289.306641 96.313 3.3822
289.672852 96.313 3.3862
290.039062 96.313 3.3901
290.405273 96.314 3.3941
290.771484 96.314 3.3981
291.137695 96.314 3.4021
291.503906 96.314 3.4061
291.870117 96.314 3.4101
292.236328 96.314 3.4141
292.602539 96.314 3.4181
292.968750 96.315 3.4221
293.334961 96.315 3.4260
293.701172 96.315 3.4300
294.067383 96.315 3.4340
294.433594 96.315 3.4380
294.799805 96.315 3.4420
295.166016 96.315 3.4459
295.532227 96.316 3.4499
295.898438 96.316 3.4539
296.264648 96.316 3.4578
296.630859 96.316 3.4618
296.997070 96.316 3.4657
297.363281 96.316 3.4697
297.729492 96.317 3.4737
298.095703 96.317 3.4776
298.461914 96.317 3.4816
298.828125 96.317 3.4855
299.194336 96.317 3.4895
299.560547 96.317 3.4934
299.926758 96.317 3.4974
300.292969 96.318 3.5014
300.659180 96.318 3.5053
301.025391 96.318 3.5093
301.391602 96.318 3.5133
301.757812 96.318 3.5172
302.124023 96.318 3.5212
302.490234 96.318 3.5252
302.856445 96.319 3.5291
303.222656 96.319 3.5331
303.588867 96.319 3.5370
303.955078 96.319 3.5410
304.321289 96.319 3.5449
304.687500 96.319 3.5489
305.053711 96.320 3.5528
305.419922 96.320 3.5568
305.786133 96.320 3.5607
306.152344 96.320 3.5646
306.518555 96.320 3.5686
306.884766 96.320 3.5725
307.250977 96.320 3.5764
307.617188 96.321 3.5804
307.983398 96.321 3.5843
308.349609 96.321 3.5882
308.715820 96.321 3.5921
309.082031 96.321 3.5961
309.448242 96.321 3.6000
309.814453 96.322 3.6040
310.180664 96.322 3.6079
310.546875 96.322 3.6118
310.913086 96.322 3.6158
311.279297 96.322 3.6197
311.645508 96.322 3.6236
312.011719 96.322 3.6276
312.377930 96.323 3.6315
312.744141 96.323 3.6354
313.110352 96.323 3.6394
313.476562 96.323 3.6433
313.842773 96.323 3.6472
314.208984 96.323 3.6511
314.575195 96.324 3.6551
314.941406 96.324 3.6590
315.307617 96.324 3.6629
