* Freq(Hz) SPL(dB) Phase(degrees)
20.141602 89.404 -2.0051
20.507812 89.420 -1.8810
20.874023 89.424 -1.7222
21.240234 89.421 -1.5687
21.606445 89.413 -1.4492
21.972656 89.400 -1.3745
22.338867 89.382 -1.3414
22.705078 89.363 -1.3423
23.071289 89.345 -1.3721
23.437500 89.329 -1.4296
23.803711 89.316 -1.5133
24.169922 89.307 -1.6183
24.536133 89.301 -1.7351
24.902344 89.299 -1.8535
25.268555 89.300 -1.9650
25.634766 89.304 -2.0652
26.000977 89.311 -2.1519
26.367188 89.320 -2.2235
26.733398 89.330 -2.2782
27.099609 89.340 -2.3144
27.465820 89.350 -2.3324
27.832031 89.358 -2.3343
28.198242 89.365 -2.3240
28.564453 89.370 -2.3054
28.930664 89.373 -2.2824
29.296875 89.373 -2.2581
29.663086 89.372 -2.2358
30.029297 89.369 -2.2184
30.395508 89.364 -2.2088
30.761719 89.359 -2.2089
31.127930 89.352 -2.2199
31.494141 89.346 -2.2421
31.860352 89.339 -2.2751
32.226562 89.333 -2.3179
32.592773 89.328 -2.3688
32.958984 89.325 -2.4257
33.325195 89.322 -2.4865
33.691406 89.321 -2.5487
34.057617 89.321 -2.6100
34.423828 89.323 -2.6686
34.790039 89.325 -2.7225
35.156250 89.329 -2.7704
35.522461 89.332 -2.8112
35.888672 89.336 -2.8447
36.254883 89.340 -2.8711
36.621094 89.344 -2.8909
36.987305 89.347 -2.9051
37.353516 89.349 -2.9149
37.719727 89.351 -2.9217
38.085938 89.351 -2.9270
38.452148 89.351 -2.9323
38.818359 89.350 -2.9390
39.184570 89.348 -2.9485
39.550781 89.346 -2.9616
39.916992 89.343 -2.9791
40.283203 89.340 -3.0013
40.649414 89.337 -3.0282
41.015625 89.334 -3.0597
41.381836 89.331 -3.0951
41.748047 89.329 -3.1337
42.114258 89.328 -3.1747
42.480469 89.327 -3.2171
42.846680 89.326 -3.2599
43.212891 89.326 -3.3021
43.579102 89.327 -3.3429
43.945312 89.328 -3.3815
44.311523 89.329 -3.4174
44.677734 89.330 -3.4504
45.043945 89.332 -3.4803
45.410156 89.333 -3.5073
45.776367 89.335 -3.5315
46.142578 89.336 -3.5535
46.508789 89.336 -3.5736
46.875000 89.337 -3.5926
47.241211 89.337 -3.6111
47.607422 89.337 -3.6297
47.973633 89.336 -3.6489
48.339844 89.335 -3.6692
48.706055 89.334 -3.6910
49.072266 89.332 -3.7145
49.438477 89.331 -3.7398
49.804688 89.330 -3.7670
50.170898 89.328 -3.7960
50.537109 89.327 -3.8265
50.903320 89.326 -3.8582
51.269531 89.325 -3.8907
51.635742 89.324 -3.9239
52.001953 89.324 -3.9571
52.368164 89.324 -3.9902
52.734375 89.323 -4.0229
53.100586 89.324 -4.0548
53.466797 89.324 -4.0858
53.833008 89.324 -4.1159
54.199219 89.324 -4.1449
54.565430 89.324 -4.1729
54.931641 89.325 -4.2000
55.297852 89.325 -4.2263
55.664062 89.325 -4.2520
56.030273 89.325 -4.2773
56.396484 89.325 -4.3023
56.762695 89.324 -4.3273
57.128906 89.324 -4.3523
57.495117 89.323 -4.3776
57.861328 89.323 -4.4032
58.227539 89.322 -4.4292
58.593750 89.322 -4.4557
58.959961 89.321 -4.4826
59.326172 89.320 -4.5100
59.692383 89.320 -4.5377
60.058594 89.319 -4.5658
60.424805 89.318 -4.5942
60.791016 89.318 -4.6228
61.157227 89.317 -4.6515
61.523438 89.317 -4.6804
61.889648 89.316 -4.7092
62.255859 89.316 -4.7381
62.622070 89.316 -4.7669
62.988281 89.315 -4.7957
63.354492 89.315 -4.8243
63.720703 89.315 -4.8529
64.086914 89.314 -4.8813
64.453125 89.314 -4.9096
64.819336 89.314 -4.9377
65.185547 89.313 -4.9657
65.551758 89.313 -4.9935
65.917969 89.313 -5.0212
66.284180 89.312 -5.0488
66.650391 89.312 -5.0761
67.016602 89.312 -5.1033
67.382812 89.312 -5.1304
67.749023 89.311 -5.1574
68.115234 89.311 -5.1842
68.481445 89.310 -5.2110
68.847656 89.310 -5.2377
69.213867 89.309 -5.2644
69.580078 89.309 -5.2912
69.946289 89.308 -5.3181
70.312500 89.308 -5.3451
70.678711 89.307 -5.3723
71.044922 89.307 -5.3997
71.411133 89.306 -5.4273
71.777344 89.305 -5.4551
72.143555 89.305 -5.4832
72.509766 89.304 -5.5115
72.875977 89.304 -5.5399
73.242188 89.303 -5.5685
73.608398 89.303 -5.5972
73.974609 89.302 -5.6259
74.340820 89.302 -5.6545
74.707031 89.301 -5.6830
75.073242 89.301 -5.7114
75.439453 89.301 -5.7397
75.805664 89.300 -5.7677
76.171875 89.300 -5.7954
76.538086 89.300 -5.8229
76.904297 89.299 -5.8502
77.270508 89.299 -5.8772
77.636719 89.298 -5.9041
78.002930 89.298 -5.9308
78.369141 89.298 -5.9575
78.735352 89.297 -5.9841
79.101562 89.297 -6.0108
79.467773 89.296 -6.0375
79.833984 89.295 -6.0644
80.200195 89.295 -6.0914
80.566406 89.294 -6.1186
80.932617 89.293 -6.1461
81.298828 89.293 -6.1737
81.665039 89.292 -6.2015
82.031250 89.292 -6.2295
82.397461 89.291 -6.2576
82.763672 89.290 -6.2858
83.129883 89.290 -6.3141
83.496094 89.289 -6.3424
83.862305 89.289 -6.3706
84.228516 89.288 -6.3988
84.594727 89.288 -6.4269
84.960938 89.287 -6.4548
85.327148 89.287 -6.4826
85.693359 89.286 -6.5102
86.059570 89.286 -6.5377
86.425781 89.285 -6.5651
86.791992 89.285 -6.5923
87.158203 89.284 -6.6195
87.524414 89.284 -6.6465
87.890625 89.283 -6.6736
88.256836 89.283 -6.7006
88.623047 89.282 -6.7276
88.989258 89.282 -6.7547
89.355469 89.281 -6.7818
89.721680 89.280 -6.8090
90.087891 89.280 -6.8363
90.454102 89.279 -6.8636
90.820312 89.279 -6.8910
91.186523 89.278 -6.9185
91.552734 89.277 -6.9460
91.918945 89.277 -6.9736
92.285156 89.276 -7.0013
92.651367 89.275 -7.0289
93.017578 89.275 -7.0566
93.383789 89.274 -7.0842
93.750000 89.274 -7.1119
94.116211 89.273 -7.1396
94.482422 89.272 -7.1672
94.848633 89.272 -7.1948
95.214844 89.271 -7.2224
95.581055 89.271 -7.2499
95.947266 89.270 -7.2774
96.313477 89.270 -7.3049
96.679688 89.269 -7.3324
97.045898 89.268 -7.3598
97.412109 89.268 -7.3872
97.778320 89.267 -7.4146
98.144531 89.267 -7.4419
98.510742 89.266 -7.4691
98.876953 89.265 -7.4964
99.243164 89.265 -7.5236
99.609375 89.264 -7.5508
99.975586 89.264 -7.5779
100.341797 89.263 -7.6051
100.708008 89.262 -7.6322
101.074219 89.262 -7.6593
101.440430 89.261 -7.6865
101.806641 89.260 -7.7137
102.172852 89.260 -7.7409
102.539062 89.259 -7.7681
102.905273 89.258 -7.7954
103.271484 89.257 -7.8228
103.637695 89.257 -7.8502
104.003906 89.256 -7.8777
104.370117 89.255 -7.9052
104.736328 89.255 -7.9327
105.102539 89.254 -7.9603
105.468750 89.253 -7.9879
105.834961 89.253 -8.0154
106.201172 89.252 -8.0430
106.567383 89.251 -8.0705
106.933594 89.251 -8.0979
107.299805 89.250 -8.1253
107.666016 89.249 -8.1527
108.032227 89.249 -8.1799
108.398438 89.248 -8.2071
108.764648 89.248 -8.2342
109.130859 89.247 -8.2613
109.497070 89.246 -8.2883
109.863281 89.246 -8.3153
110.229492 89.245 -8.3422
110.595703 89.244 -8.3692
110.961914 89.243 -8.3961
111.328125 89.243 -8.4231
111.694336 89.242 -8.4502
112.060547 89.241 -8.4772
112.426758 89.240 -8.5044
112.792969 89.240 -8.5316
113.159180 89.239 -8.5588
113.525391 89.238 -8.5862
113.891602 89.237 -8.6135
114.257812 89.237 -8.6409
114.624023 89.236 -8.6683
114.990234 89.235 -8.6957
115.356445 89.235 -8.7231
115.722656 89.234 -8.7505
116.088867 89.233 -8.7778
116.455078 89.232 -8.8052
116.821289 89.232 -8.8324
117.187500 89.231 -8.8596
117.553711 89.230 -8.8868
117.919922 89.230 -8.9139
118.286133 89.229 -8.9409
118.652344 89.228 -8.9679
119.018555 89.227 -8.9949
119.384766 89.227 -9.0219
119.750977 89.226 -9.0488
120.117188 89.225 -9.0758
120.483398 89.224 -9.1027
120.849609 89.224 -9.1297
121.215820 89.223 -9.1567
121.582031 89.222 -9.1836
121.948242 89.221 -9.2107
122.314453 89.220 -9.2377
122.680664 89.220 -9.2648
123.046875 89.219 -9.2918
123.413086 89.218 -9.3189
123.779297 89.217 -9.3461
124.145508 89.217 -9.3732
124.511719 89.216 -9.4003
124.877930 89.215 -9.4274
125.244141 89.214 -9.4545
125.610352 89.213 -9.4817
125.976562 89.213 -9.5088
126.342773 89.212 -9.5359
126.708984 89.211 -9.5629
127.075195 89.210 -9.5900
127.441406 89.209 -9.6170
127.807617 89.209 -9.6441
128.173828 89.208 -9.6711
128.540039 89.207 -9.6981
128.906250 89.206 -9.7250
129.272461 89.205 -9.7520
129.638672 89.205 -9.7790
130.004883 89.204 -9.8059
130.371094 89.203 -9.8328
130.737305 89.202 -9.8597
131.103516 89.201 -9.8866
131.469727 89.201 -9.9134
131.835938 89.200 -9.9403
132.202148 89.199 -9.9671
132.568359 89.198 -9.9940
132.934570 89.197 -10.0208
133.300781 89.196 -10.0477
133.666992 89.196 -10.0745
134.033203 89.195 -10.1014
134.399414 89.194 -10.1282
134.765625 89.193 -10.1551
135.131836 89.192 -10.1820
135.498047 89.191 -10.2090
135.864258 89.190 -10.2359
136.230469 89.190 -10.2629
136.596680 89.189 -10.2898
136.962891 89.188 -10.3168
137.329102 89.187 -10.3438
137.695312 89.186 -10.3707
138.061523 89.185 -10.3977
138.427734 89.184 -10.4246
138.793945 89.184 -10.4515
139.160156 89.183 -10.4784
139.526367 89.182 -10.5052
139.892578 89.181 -10.5320
140.258789 89.180 -10.5587
140.625000 89.179 -10.5855
140.991211 89.178 -10.6122
141.357422 89.178 -10.6389
141.723633 89.177 -10.6655
142.089844 89.176 -10.6922
142.456055 89.175 -10.7188
142.822266 89.174 -10.7455
143.188477 89.173 -10.7722
143.554688 89.172 -10.7988
143.920898 89.171 -10.8255
144.287109 89.170 -10.8522
144.653320 89.169 -10.8790
145.019531 89.169 -10.9058
145.385742 89.168 -10.9325
145.751953 89.167 -10.9593
146.118164 89.166 -10.9861
146.484375 89.165 -11.0129
146.850586 89.164 -11.0397
147.216797 89.163 -11.0665
147.583008 89.162 -11.0933
147.949219 89.161 -11.1201
148.315430 89.160 -11.1468
148.681641 89.159 -11.1735
149.047852 89.158 -11.2002
149.414062 89.158 -11.2269
149.780273 89.157 -11.2535
150.146484 89.156 -11.2801
150.512695 89.155 -11.3067
150.878906 89.154 -11.3333
151.245117 89.153 -11.3598
151.611328 89.152 -11.3864
151.977539 89.151 -11.4129
152.343750 89.150 -11.4394
152.709961 89.149 -11.4660
153.076172 89.148 -11.4925
153.442383 89.147 -11.5191
153.808594 89.146 -11.5456
154.174805 89.145 -11.5722
154.541016 89.144 -11.5987
154.907227 89.143 -11.6253
155.273438 89.142 -11.6519
155.639648 89.141 -11.6785
156.005859 89.141 -11.7051
156.372070 89.140 -11.7316
156.738281 89.139 -11.7582
157.104492 89.138 -11.7848
157.470703 89.137 -11.8113
157.836914 89.136 -11.8379
158.203125 89.135 -11.8644
158.569336 89.134 -11.8910
158.935547 89.133 -11.9175
159.301758 89.132 -11.9440
159.667969 89.131 -11.9705
160.034180 89.130 -11.9970
160.400391 89.129 -12.0234
160.766602 89.128 -12.0499
161.132812 89.127 -12.0763
161.499023 89.126 -12.1028
161.865234 89.125 -12.1292
162.231445 89.124 -12.1556
162.597656 89.123 -12.1820
162.963867 89.122 -12.2084
163.330078 89.121 -12.2348
163.696289 89.120 -12.2611
164.062500 89.119 -12.2875
164.428711 89.118 -12.3139
164.794922 89.117 -12.3402
165.161133 89.116 -12.3666
165.527344 89.115 -12.3929
165.893555 89.114 -12.4192
166.259766 89.113 -12.4456
166.625977 89.112 -12.4720
166.992188 89.111 -12.4983
167.358398 89.110 -12.5247
167.724609 89.109 -12.5511
168.090820 89.108 -12.5774
168.457031 89.107 -12.6038
168.823242 89.105 -12.6302
169.189453 89.104 -12.6565
169.555664 89.103 -12.6829
169.921875 89.102 -12.7092
170.288086 89.101 -12.7356
170.654297 89.100 -12.7619
171.020508 89.099 -12.7882
171.386719 89.098 -12.8145
171.752930 89.097 -12.8407
172.119141 89.096 -12.8669
172.485352 89.095 -12.8931
172.851562 89.094 -12.9193
173.217773 89.093 -12.9455
173.583984 89.092 -12.9717
173.950195 89.091 -12.9978
174.316406 89.090 -13.0240
174.682617 89.089 -13.0501
175.048828 89.088 -13.0763
175.415039 89.087 -13.1024
175.781250 89.085 -13.1286
176.147461 89.084 -13.1548
176.513672 89.083 -13.1809
176.879883 89.082 -13.2071
177.246094 89.081 -13.2333
177.612305 89.080 -13.2595
177.978516 89.079 -13.2857
178.344727 89.078 -13.3119
178.710938 89.077 -13.3381
179.077148 89.076 -13.3643
179.443359 89.075 -13.3904
179.809570 89.074 -13.4166
180.175781 89.072 -13.4427
180.541992 89.071 -13.4688
180.908203 89.070 -13.4949
181.274414 89.069 -13.5210
181.640625 89.068 -13.5471
182.006836 89.067 -13.5731
182.373047 89.066 -13.5991
182.739258 89.065 -13.6251
183.105469 89.064 -13.6511
183.471680 89.063 -13.6771
183.837891 89.061 -13.7031
184.204102 89.060 -13.7291
184.570312 89.059 -13.7551
184.936523 89.058 -13.7811
185.302734 89.057 -13.8070
185.668945 89.056 -13.8330
186.035156 89.055 -13.8590
186.401367 89.054 -13.8850
186.767578 89.052 -13.9110
187.133789 89.051 -13.9369
187.500000 89.050 -13.9629
187.866211 89.049 -13.9889
188.232422 89.048 -14.0148
188.598633 89.047 -14.0408
188.964844 89.046 -14.0668
189.331055 89.044 -14.0927
189.697266 89.043 -14.1186
190.063477 89.042 -14.1446
190.429688 89.041 -14.1705
190.795898 89.040 -14.1964
191.162109 89.039 -14.2223
191.528320 89.038 -14.2481
191.894531 89.036 -14.2740
192.260742 89.035 -14.2999
192.626953 89.034 -14.3257
192.993164 89.033 -14.3516
193.359375 89.032 -14.3774
193.725586 89.031 -14.4032
194.091797 89.029 -14.4290
194.458008 89.028 -14.4548
194.824219 89.027 -14.4806
195.190430 89.026 -14.5064
195.556641 89.025 -14.5322
195.922852 89.024 -14.5579
196.289062 89.022 -14.5837
196.655273 89.021 -14.6094
197.021484 89.020 -14.6352
197.387695 89.019 -14.6609
197.753906 89.018 -14.6867
198.120117 89.016 -14.7124
198.486328 89.015 -14.7381
198.852539 89.014 -14.7639
199.218750 89.013 -14.7896
199.584961 89.012 -14.8153
199.951172 89.010 -14.8410
200.317383 89.009 -14.8668
200.683594 89.008 -14.8925
201.049805 89.007 -14.9182
201.416016 89.006 -14.9439
201.782227 89.004 -14.9696
202.148438 89.003 -14.9953
202.514648 89.002 -15.0210
202.880859 89.001 -15.0466
203.247070 89.000 -15.0722
203.613281 88.998 -15.0979
203.979492 88.997 -15.1235
204.345703 88.996 -15.1490
204.711914 88.995 -15.1746
205.078125 88.993 -15.2002
205.444336 88.992 -15.2257
205.810547 88.991 -15.2513
206.176758 88.990 -15.2768
206.542969 88.989 -15.3023
206.909180 88.987 -15.3279
207.275391 88.986 -15.3534
207.641602 88.985 -15.3789
208.007812 88.984 -15.4044
208.374023 88.982 -15.4300
208.740234 88.981 -15.4555
209.106445 88.980 -15.4810
209.472656 88.979 -15.5065
209.838867 88.977 -15.5321
210.205078 88.976 -15.5576
210.571289 88.975 -15.5831
210.937500 88.974 -15.6086
211.303711 88.972 -15.6341
211.669922 88.971 -15.6596
212.036133 88.970 -15.6850
212.402344 88.969 -15.7105
212.768555 88.967 -15.7359
213.134766 88.966 -15.7613
213.500977 88.965 -15.7867
213.867188 88.964 -15.8121
214.233398 88.962 -15.8375
214.599609 88.961 -15.8629
214.965820 88.960 -15.8882
215.332031 88.958 -15.9136
215.698242 88.957 -15.9389
216.064453 88.956 -15.9642
216.430664 88.955 -15.9896
216.796875 88.953 -16.0149
217.163086 88.952 -16.0402
217.529297 88.951 -16.0655
217.895508 88.949 -16.0908
218.261719 88.948 -16.1161
218.627930 88.947 -16.1414
218.994141 88.946 -16.1667
219.360352 88.944 -16.1920
219.726562 88.943 -16.2173
220.092773 88.942 -16.2426
220.458984 88.940 -16.2679
220.825195 88.939 -16.2932
221.191406 88.938 -16.3184
221.557617 88.936 -16.3437
221.923828 88.935 -16.3689
222.290039 88.934 -16.3941
222.656250 88.932 -16.4193
223.022461 88.931 -16.4445
223.388672 88.930 -16.4697
223.754883 88.929 -16.4949
224.121094 88.927 -16.5201
224.487305 88.926 -16.5453
224.853516 88.925 -16.5704
225.219727 88.923 -16.5956
225.585938 88.922 -16.6207
225.952148 88.921 -16.6458
226.318359 88.919 -16.6710
226.684570 88.918 -16.6961
227.050781 88.917 -16.7212
227.416992 88.915 -16.7462
227.783203 88.914 -16.7713
228.149414 88.913 -16.7964
228.515625 88.911 -16.8214
228.881836 88.910 -16.8465
229.248047 88.909 -16.8716
229.614258 88.907 -16.8966
229.980469 88.906 -16.9216
230.346680 88.905 -16.9467
230.712891 88.903 -16.9717
231.079102 88.902 -16.9967
231.445312 88.900 -17.0217
231.811523 88.899 -17.0468
232.177734 88.898 -17.0718
232.543945 88.896 -17.0968
232.910156 88.895 -17.1218
233.276367 88.894 -17.1468
233.642578 88.892 -17.1718
234.008789 88.891 -17.1967
234.375000 88.890 -17.2217
234.741211 88.888 -17.2466
235.107422 88.887 -17.2716
235.473633 88.885 -17.2965
235.839844 88.884 -17.3214
236.206055 88.883 -17.3462
236.572266 88.881 -17.3711
236.938477 88.880 -17.3960
237.304688 88.879 -17.4208
237.670898 88.877 -17.4457
238.037109 88.876 -17.4705
238.403320 88.874 -17.4953
238.769531 88.873 -17.5201
239.135742 88.872 -17.5450
239.501953 88.870 -17.5698
239.868164 88.869 -17.5946
240.234375 88.868 -17.6194
240.600586 88.866 -17.6442
240.966797 88.865 -17.6690
241.333008 88.863 -17.6938
241.699219 88.862 -17.7186
242.065430 88.860 -17.7434
242.431641 88.859 -17.7681
242.797852 88.858 -17.7929
243.164062 88.856 -17.8177
243.530273 88.855 -17.8424
243.896484 88.853 -17.8672
244.262695 88.852 -17.8919
244.628906 88.851 -17.9166
244.995117 88.849 -17.9413
245.361328 88.848 -17.9659
245.727539 88.846 -17.9906
246.093750 88.845 -18.0153
246.459961 88.844 -18.0399
246.826172 88.842 -18.0645
247.192383 88.841 -18.0891
247.558594 88.839 -18.1137
247.924805 88.838 -18.1383
248.291016 88.836 -18.1630
248.657227 88.835 -18.1876
249.023438 88.834 -18.2121
249.389648 88.832 -18.2367
249.755859 88.831 -18.2613
250.122070 88.829 -18.2859
250.488281 88.828 -18.3104
250.854492 88.826 -18.3350
251.220703 88.825 -18.3595
251.586914 88.823 -18.3841
251.953125 88.822 -18.4086
252.319336 88.821 -18.4332
252.685547 88.819 -18.4577
253.051758 88.818 -18.4822
253.417969 88.816 -18.5067
253.784180 88.815 -18.5312
254.150391 88.813 -18.5556
254.516602 88.812 -18.5801
254.882812 88.810 -18.6046
255.249023 88.809 -18.6290
255.615234 88.807 -18.6535
255.981445 88.806 -18.6779
256.347656 88.805 -18.7023
256.713867 88.803 -18.7267
257.080078 88.802 -18.7511
257.446289 88.800 -18.7755
257.812500 88.799 -18.7999
258.178711 88.797 -18.8242
258.544922 88.796 -18.8486
258.911133 88.794 -18.8729
259.277344 88.793 -18.8973
259.643555 88.791 -18.9216
260.009766 88.790 -18.9459
260.375977 88.788 -18.9702
260.742188 88.787 -18.9946
261.108398 88.785 -19.0189
261.474609 88.784 -19.0431
261.840820 88.782 -19.0674
262.207031 88.781 -19.0917
262.573242 88.779 -19.1160
262.939453 88.778 -19.1402
263.305664 88.776 -19.1645
263.671875 88.775 -19.1887
264.038086 88.773 -19.2130
264.404297 88.772 -19.2372
264.770508 88.770 -19.2614
265.136719 88.769 -19.2857
265.502930 88.767 -19.3099
265.869141 88.766 -19.3341
266.235352 88.764 -19.3582
266.601562 88.763 -19.3824
266.967773 88.761 -19.4066
267.333984 88.760 -19.4307
267.700195 88.758 -19.4549
268.066406 88.757 -19.4790
268.432617 88.755 -19.5031
268.798828 88.754 -19.5272
269.165039 88.752 -19.5513
269.531250 88.751 -19.5753
269.897461 88.749 -19.5994
270.263672 88.748 -19.6235
270.629883 88.746 -19.6475
270.996094 88.745 -19.6716
271.362305 88.743 -19.6956
271.728516 88.742 -19.7197
272.094727 88.740 -19.7437
272.460938 88.738 -19.7677
272.827148 88.737 -19.7917
273.193359 88.735 -19.8157
273.559570 88.734 -19.8397
273.925781 88.732 -19.8637
274.291992 88.731 -19.8877
274.658203 88.729 -19.9117
275.024414 88.728 -19.9357
275.390625 88.726 -19.9597
275.756836 88.725 -19.9836
276.123047 88.723 -20.0075
276.489258 88.721 -20.0314
276.855469 88.720 -20.0553
277.221680 88.718 -20.0792
277.587891 88.717 -20.1031
277.954102 88.715 -20.1270
278.320312 88.714 -20.1509
278.686523 88.712 -20.1747
279.052734 88.711 -20.1986
279.418945 88.709 -20.2224
279.785156 88.707 -20.2462
280.151367 88.706 -20.2700
280.517578 88.704 -20.2938
280.883789 88.703 -20.3176
281.250000 88.701 -20.3414
281.616211 88.700 -20.3652
281.982422 88.698 -20.3890
282.348633 88.696 -20.4128
282.714844 88.695 -20.4365
283.081055 88.693 -20.4603
283.447266 88.692 -20.4840
283.813477 88.690 -20.5078
284.179688 88.689 -20.5315
284.545898 88.687 -20.5552
284.912109 88.685 -20.5789
285.278320 88.684 -20.6026
285.644531 88.682 -20.6263
286.010742 88.681 -20.6500
286.376953 88.679 -20.6737
286.743164 88.677 -20.6973
287.109375 88.676 -20.7210
287.475586 88.674 -20.7446
287.841797 88.673 -20.7682
288.208008 88.671 -20.7919
288.574219 88.669 -20.8155
288.940430 88.668 -20.8391
289.306641 88.666 -20.8627
289.672852 88.665 -20.8862
290.039062 88.663 -20.9098
290.405273 88.661 -20.9334
290.771484 88.660 -20.9569
291.137695 88.658 -20.9805
291.503906 88.657 -21.0040
291.870117 88.655 -21.0275
292.236328 88.653 -21.0510
292.602539 88.652 -21.0745
292.968750 88.650 -21.0980
293.334961 88.648 -21.1215
293.701172 88.647 -21.1450
294.067383 88.645 -21.1684
294.433594 88.644 -21.1919
294.799805 88.642 -21.2153
295.166016 88.640 -21.2388
295.532227 88.639 -21.2622
295.898438 88.637 -21.2856
296.264648 88.635 -21.3091
296.630859 88.634 -21.3325
296.997070 88.632 -21.3559
297.363281 88.631 -21.3793
297.729492 88.629 -21.4026
