* Freq(Hz) SPL(dB) Phase(degrees)
20.141602 87.525 -2.0051
20.507812 87.540 -1.8810
20.874023 87.545 -1.7222
21.240234 87.542 -1.5687
21.606445 87.534 -1.4492
21.972656 87.521 -1.3745
22.338867 87.503 -1.3414
22.705078 87.484 -1.3423
23.071289 87.465 -1.3721
23.437500 87.449 -1.4296
23.803711 87.437 -1.5133
24.169922 87.428 -1.6183
24.536133 87.422 -1.7351
24.902344 87.419 -1.8535
25.268555 87.420 -1.9650
25.634766 87.425 -2.0652
26.000977 87.432 -2.1519
26.367188 87.441 -2.2235
26.733398 87.451 -2.2782
27.099609 87.461 -2.3144
27.465820 87.470 -2.3324
27.832031 87.479 -2.3343
28.198242 87.486 -2.3240
28.564453 87.491 -2.3054
28.930664 87.493 -2.2824
29.296875 87.494 -2.2581
29.663086 87.493 -2.2358
30.029297 87.490 -2.2184
30.395508 87.485 -2.2088
30.761719 87.479 -2.2089
31.127930 87.473 -2.2199
31.494141 87.466 -2.2421
31.860352 87.460 -2.2751
32.226562 87.454 -2.3179
32.592773 87.449 -2.3688
32.958984 87.445 -2.4257
33.325195 87.443 -2.4865
33.691406 87.442 -2.5487
34.057617 87.442 -2.6100
34.423828 87.444 -2.6686
34.790039 87.446 -2.7225
35.156250 87.449 -2.7704
35.522461 87.453 -2.8112
35.888672 87.457 -2.8447
36.254883 87.461 -2.8711
36.621094 87.465 -2.8909
36.987305 87.468 -2.9051
37.353516 87.470 -2.9149
37.719727 87.472 -2.9217
38.085938 87.472 -2.9270
38.452148 87.472 -2.9323
38.818359 87.471 -2.9390
39.184570 87.469 -2.9485
39.550781 87.467 -2.9616
39.916992 87.464 -2.9791
40.283203 87.461 -3.0013
40.649414 87.458 -3.0282
41.015625 87.455 -3.0597
41.381836 87.452 -3.0951
41.748047 87.450 -3.1337
42.114258 87.448 -3.1747
42.480469 87.447 -3.2171
42.846680 87.447 -3.2599
43.212891 87.447 -3.3021
43.579102 87.447 -3.3429
43.945312 87.448 -3.3815
44.311523 87.450 -3.4174
44.677734 87.451 -3.4504
45.043945 87.453 -3.4803
45.410156 87.454 -3.5073
45.776367 87.455 -3.5315
46.142578 87.456 -3.5534
46.508789 87.457 -3.5736
46.875000 87.458 -3.5926
47.241211 87.458 -3.6111
47.607422 87.457 -3.6297
47.973633 87.457 -3.6489
48.339844 87.456 -3.6692
48.706055 87.455 -3.6910
49.072266 87.453 -3.7145
49.438477 87.452 -3.7398
49.804688 87.450 -3.7670
50.170898 87.449 -3.7960
50.537109 87.448 -3.8264
50.903320 87.447 -3.8582
51.269531 87.446 -3.8907
51.635742 87.445 -3.9239
52.001953 87.445 -3.9571
52.368164 87.444 -3.9902
52.734375 87.444 -4.0229
53.100586 87.444 -4.0548
53.466797 87.444 -4.0858
53.833008 87.445 -4.1159
54.199219 87.445 -4.1449
54.565430 87.445 -4.1729
54.931641 87.445 -4.2000
55.297852 87.446 -4.2263
55.664062 87.446 -4.2520
56.030273 87.446 -4.2773
56.396484 87.445 -4.3023
56.762695 87.445 -4.3273
57.128906 87.445 -4.3523
57.495117 87.444 -4.3776
57.861328 87.444 -4.4032
58.227539 87.443 -4.4292
58.593750 87.442 -4.4557
58.959961 87.442 -4.4826
59.326172 87.441 -4.5100
59.692383 87.441 -4.5377
60.058594 87.440 -4.5658
60.424805 87.439 -4.5942
60.791016 87.439 -4.6228
61.157227 87.438 -4.6515
61.523438 87.438 -4.6804
61.889648 87.437 -4.7092
62.255859 87.437 -4.7381
62.622070 87.436 -4.7669
62.988281 87.436 -4.7957
63.354492 87.436 -4.8243
63.720703 87.435 -4.8528
64.086914 87.435 -4.8813
64.453125 87.435 -4.9095
64.819336 87.434 -4.9377
65.185547 87.434 -4.9657
65.551758 87.434 -4.9935
65.917969 87.434 -5.0212
66.284180 87.433 -5.0487
66.650391 87.433 -5.0761
67.016602 87.433 -5.1033
67.382812 87.432 -5.1304
67.749023 87.432 -5.1574
68.115234 87.432 -5.1842
68.481445 87.431 -5.2110
68.847656 87.431 -5.2377
69.213867 87.430 -5.2644
69.580078 87.430 -5.2912
69.946289 87.429 -5.3181
70.312500 87.429 -5.3451
70.678711 87.428 -5.3723
71.044922 87.427 -5.3997
71.411133 87.427 -5.4273
71.777344 87.426 -5.4552
72.143555 87.426 -5.4832
72.509766 87.425 -5.5115
72.875977 87.424 -5.5399
73.242188 87.424 -5.5685
73.608398 87.423 -5.5972
73.974609 87.423 -5.6258
74.340820 87.422 -5.6545
74.707031 87.422 -5.6830
75.073242 87.422 -5.7114
75.439453 87.421 -5.7397
75.805664 87.421 -5.7677
76.171875 87.421 -5.7954
76.538086 87.420 -5.8229
76.904297 87.420 -5.8502
77.270508 87.420 -5.8772
77.636719 87.419 -5.9041
78.002930 87.419 -5.9308
78.369141 87.418 -5.9575
78.735352 87.418 -5.9841
79.101562 87.417 -6.0108
79.467773 87.417 -6.0375
79.833984 87.416 -6.0644
80.200195 87.416 -6.0914
80.566406 87.415 -6.1186
80.932617 87.414 -6.1461
81.298828 87.414 -6.1737
81.665039 87.413 -6.2015
82.031250 87.412 -6.2295
82.397461 87.412 -6.2576
82.763672 87.411 -6.2859
83.129883 87.411 -6.3141
83.496094 87.410 -6.3424
83.862305 87.410 -6.3706
84.228516 87.409 -6.3988
84.594727 87.409 -6.4269
84.960938 87.408 -6.4548
85.327148 87.408 -6.4826
85.693359 87.407 -6.5102
86.059570 87.407 -6.5377
86.425781 87.406 -6.5651
86.791992 87.406 -6.5923
87.158203 87.405 -6.6195
87.524414 87.405 -6.6465
87.890625 87.404 -6.6736
88.256836 87.404 -6.7006
88.623047 87.403 -6.7276
88.989258 87.402 -6.7547
89.355469 87.402 -6.7818
89.721680 87.401 -6.8090
90.087891 87.401 -6.8363
90.454102 87.400 -6.8636
90.820312 87.399 -6.8910
91.186523 87.399 -6.9185
91.552734 87.398 -6.9460
91.918945 87.398 -6.9736
92.285156 87.397 -7.0013
92.651367 87.396 -7.0289
93.017578 87.396 -7.0566
93.383789 87.395 -7.0842
93.750000 87.394 -7.1119
94.116211 87.394 -7.1395
94.482422 87.393 -7.1672
94.848633 87.393 -7.1948
95.214844 87.392 -7.2224
95.581055 87.391 -7.2499
95.947266 87.391 -7.2774
96.313477 87.390 -7.3049
96.679688 87.390 -7.3324
97.045898 87.389 -7.3598
97.412109 87.389 -7.3872
97.778320 87.388 -7.4146
98.144531 87.387 -7.4419
98.510742 87.387 -7.4691
98.876953 87.386 -7.4964
99.243164 87.386 -7.5236
99.609375 87.385 -7.5508
99.975586 87.384 -7.5779
100.341797 87.384 -7.6051
100.708008 87.383 -7.6322
101.074219 87.382 -7.6593
101.440430 87.382 -7.6865
101.806641 87.381 -7.7137
102.172852 87.380 -7.7409
102.539062 87.380 -7.7681
102.905273 87.379 -7.7954
103.271484 87.378 -7.8228
103.637695 87.378 -7.8502
104.003906 87.377 -7.8777
104.370117 87.376 -7.9052
104.736328 87.376 -7.9327
105.102539 87.375 -7.9603
105.468750 87.374 -7.9879
105.834961 87.373 -8.0154
106.201172 87.373 -8.0430
106.567383 87.372 -8.0705
106.933594 87.372 -8.0979
107.299805 87.371 -8.1253
107.666016 87.370 -8.1527
108.032227 87.370 -8.1799
108.398438 87.369 -8.2071
108.764648 87.368 -8.2342
109.130859 87.368 -8.2613
109.497070 87.367 -8.2883
109.863281 87.366 -8.3153
110.229492 87.366 -8.3422
110.595703 87.365 -8.3692
110.961914 87.364 -8.3961
111.328125 87.363 -8.4231
111.694336 87.363 -8.4502
112.060547 87.362 -8.4772
112.426758 87.361 -8.5044
112.792969 87.361 -8.5316
113.159180 87.360 -8.5589
113.525391 87.359 -8.5862
113.891602 87.358 -8.6135
114.257812 87.358 -8.6409
114.624023 87.357 -8.6683
114.990234 87.356 -8.6957
115.356445 87.355 -8.7231
115.722656 87.355 -8.7505
116.088867 87.354 -8.7779
116.455078 87.353 -8.8052
116.821289 87.352 -8.8324
117.187500 87.352 -8.8596
117.553711 87.351 -8.8868
117.919922 87.350 -8.9139
118.286133 87.350 -8.9409
118.652344 87.349 -8.9679
119.018555 87.348 -8.9949
119.384766 87.347 -9.0219
119.750977 87.347 -9.0488
120.117188 87.346 -9.0758
120.483398 87.345 -9.1027
120.849609 87.344 -9.1297
121.215820 87.344 -9.1566
121.582031 87.343 -9.1836
121.948242 87.342 -9.2106
122.314453 87.341 -9.2377
122.680664 87.340 -9.2648
123.046875 87.340 -9.2918
123.413086 87.339 -9.3189
123.779297 87.338 -9.3461
124.145508 87.337 -9.3732
124.511719 87.337 -9.4003
124.877930 87.336 -9.4274
125.244141 87.335 -9.4546
125.610352 87.334 -9.4817
125.976562 87.333 -9.5088
126.342773 87.333 -9.5359
126.708984 87.332 -9.5629
127.075195 87.331 -9.5900
127.441406 87.330 -9.6170
127.807617 87.329 -9.6441
128.173828 87.329 -9.6711
128.540039 87.328 -9.6981
128.906250 87.327 -9.7251
129.272461 87.326 -9.7520
129.638672 87.325 -9.7790
130.004883 87.325 -9.8059
130.371094 87.324 -9.8328
130.737305 87.323 -9.8597
131.103516 87.322 -9.8866
131.469727 87.321 -9.9134
131.835938 87.321 -9.9403
132.202148 87.320 -9.9671
132.568359 87.319 -9.9940
132.934570 87.318 -10.0208
133.300781 87.317 -10.0477
133.666992 87.316 -10.0745
134.033203 87.315 -10.1014
134.399414 87.315 -10.1282
134.765625 87.314 -10.1551
135.131836 87.313 -10.1820
135.498047 87.312 -10.2090
135.864258 87.311 -10.2359
136.230469 87.310 -10.2629
136.596680 87.309 -10.2898
136.962891 87.309 -10.3168
137.329102 87.308 -10.3438
137.695312 87.307 -10.3707
138.061523 87.306 -10.3977
138.427734 87.305 -10.4246
138.793945 87.304 -10.4515
139.160156 87.303 -10.4783
139.526367 87.303 -10.5052
139.892578 87.302 -10.5320
140.258789 87.301 -10.5587
140.625000 87.300 -10.5855
140.991211 87.299 -10.6122
141.357422 87.298 -10.6389
141.723633 87.297 -10.6655
142.089844 87.297 -10.6922
142.456055 87.296 -10.7188
142.822266 87.295 -10.7455
143.188477 87.294 -10.7722
143.554688 87.293 -10.7988
143.920898 87.292 -10.8255
144.287109 87.291 -10.8522
144.653320 87.290 -10.8790
145.019531 87.289 -10.9057
145.385742 87.288 -10.9325
145.751953 87.287 -10.9593
146.118164 87.287 -10.9861
146.484375 87.286 -11.0129
146.850586 87.285 -11.0397
147.216797 87.284 -11.0665
147.583008 87.283 -11.0933
147.949219 87.282 -11.1201
148.315430 87.281 -11.1468
148.681641 87.280 -11.1735
149.047852 87.279 -11.2002
149.414062 87.278 -11.2269
149.780273 87.277 -11.2535
150.146484 87.277 -11.2801
150.512695 87.276 -11.3067
150.878906 87.275 -11.3332
151.245117 87.274 -11.3598
151.611328 87.273 -11.3863
151.977539 87.272 -11.4129
152.343750 87.271 -11.4394
152.709961 87.270 -11.4659
153.076172 87.269 -11.4925
153.442383 87.268 -11.5190
153.808594 87.267 -11.5456
154.174805 87.266 -11.5722
154.541016 87.265 -11.5987
154.907227 87.264 -11.6253
155.273438 87.263 -11.6519
155.639648 87.262 -11.6785
156.005859 87.261 -11.7051
156.372070 87.260 -11.7316
156.738281 87.259 -11.7582
157.104492 87.258 -11.7848
157.470703 87.257 -11.8113
157.836914 87.256 -11.8379
158.203125 87.255 -11.8644
158.569336 87.254 -11.8910
158.935547 87.254 -11.9175
159.301758 87.253 -11.9440
159.667969 87.252 -11.9705
160.034180 87.251 -11.9970
160.400391 87.250 -12.0234
160.766602 87.249 -12.0499
161.132812 87.248 -12.0763
161.499023 87.247 -12.1028
161.865234 87.246 -12.1292
162.231445 87.245 -12.1556
162.597656 87.244 -12.1820
162.963867 87.243 -12.2084
163.330078 87.242 -12.2348
163.696289 87.241 -12.2611
164.062500 87.240 -12.2875
164.428711 87.239 -12.3138
164.794922 87.238 -12.3402
165.161133 87.237 -12.3665
165.527344 87.236 -12.3929
165.893555 87.235 -12.4192
166.259766 87.234 -12.4456
166.625977 87.232 -12.4720
166.992188 87.231 -12.4983
167.358398 87.230 -12.5247
167.724609 87.229 -12.5511
168.090820 87.228 -12.5774
168.457031 87.227 -12.6038
168.823242 87.226 -12.6302
169.189453 87.225 -12.6565
169.555664 87.224 -12.6829
169.921875 87.223 -12.7092
170.288086 87.222 -12.7356
170.654297 87.221 -12.7619
171.020508 87.220 -12.7882
171.386719 87.219 -12.8145
171.752930 87.218 -12.8407
172.119141 87.217 -12.8669
172.485352 87.216 -12.8932
172.851562 87.215 -12.9194
173.217773 87.214 -12.9455
173.583984 87.213 -12.9717
173.950195 87.212 -12.9978
174.316406 87.211 -13.0240
174.682617 87.210 -13.0501
175.048828 87.208 -13.0763
175.415039 87.207 -13.1024
175.781250 87.206 -13.1286
176.147461 87.205 -13.1548
176.513672 87.204 -13.1809
176.879883 87.203 -13.2071
177.246094 87.202 -13.2333
177.612305 87.201 -13.2595
177.978516 87.200 -13.2857
178.344727 87.199 -13.3119
178.710938 87.198 -13.3381
179.077148 87.196 -13.3643
179.443359 87.195 -13.3904
179.809570 87.194 -13.4166
180.175781 87.193 -13.4427
180.541992 87.192 -13.4688
180.908203 87.191 -13.4949
181.274414 87.190 -13.5210
181.640625 87.189 -13.5471
182.006836 87.188 -13.5731
182.373047 87.187 -13.5991
182.739258 87.186 -13.6251
183.105469 87.184 -13.6511
183.471680 87.183 -13.6771
183.837891 87.182 -13.7031
184.204102 87.181 -13.7291
184.570312 87.180 -13.7551
184.936523 87.179 -13.7811
185.302734 87.178 -13.8071
185.668945 87.177 -13.8330
186.035156 87.175 -13.8590
186.401367 87.174 -13.8850
186.767578 87.173 -13.9110
187.133789 87.172 -13.9369
187.500000 87.171 -13.9629
187.866211 87.170 -13.9889
188.232422 87.169 -14.0149
188.598633 87.167 -14.0408
188.964844 87.166 -14.0668
189.331055 87.165 -14.0927
189.697266 87.164 -14.1186
190.063477 87.163 -14.1445
190.429688 87.162 -14.1705
190.795898 87.161 -14.1964
191.162109 87.159 -14.2223
191.528320 87.158 -14.2482
191.894531 87.157 -14.2740
192.260742 87.156 -14.2999
192.626953 87.155 -14.3257
192.993164 87.154 -14.3516
193.359375 87.153 -14.3774
193.725586 87.151 -14.4032
194.091797 87.150 -14.4290
194.458008 87.149 -14.4548
194.824219 87.148 -14.4806
195.190430 87.147 -14.5064
195.556641 87.145 -14.5322
195.922852 87.144 -14.5579
196.289062 87.143 -14.5837
196.655273 87.142 -14.6094
197.021484 87.141 -14.6352
197.387695 87.140 -14.6609
197.753906 87.138 -14.6867
198.120117 87.137 -14.7124
198.486328 87.136 -14.7381
198.852539 87.135 -14.7638
199.218750 87.134 -14.7896
199.584961 87.132 -14.8153
199.951172 87.131 -14.8410
200.317383 87.130 -14.8668
200.683594 87.129 -14.8925
201.049805 87.128 -14.9182
201.416016 87.126 -14.9439
201.782227 87.125 -14.9696
202.148438 87.124 -14.9953
202.514648 87.123 -15.0209
202.880859 87.122 -15.0466
203.247070 87.120 -15.0722
203.613281 87.119 -15.0978
203.979492 87.118 -15.1234
204.345703 87.117 -15.1490
204.711914 87.115 -15.1746
205.078125 87.114 -15.2002
205.444336 87.113 -15.2257
205.810547 87.112 -15.2513
206.176758 87.111 -15.2768
206.542969 87.109 -15.3023
206.909180 87.108 -15.3278
207.275391 87.107 -15.3534
207.641602 87.106 -15.3789
208.007812 87.104 -15.4044
208.374023 87.103 -15.4300
208.740234 87.102 -15.4555
209.106445 87.101 -15.4810
209.472656 87.099 -15.5065
209.838867 87.098 -15.5321
210.205078 87.097 -15.5576
210.571289 87.096 -15.5831
210.937500 87.094 -15.6086
211.303711 87.093 -15.6341
211.669922 87.092 -15.6596
212.036133 87.091 -15.6850
212.402344 87.089 -15.7105
212.768555 87.088 -15.7359
213.134766 87.087 -15.7613
213.500977 87.086 -15.7867
213.867188 87.084 -15.8121
214.233398 87.083 -15.8375
214.599609 87.082 -15.8629
214.965820 87.080 -15.8882
215.332031 87.079 -15.9136
215.698242 87.078 -15.9389
216.064453 87.077 -15.9642
216.430664 87.075 -15.9896
216.796875 87.074 -16.0149
217.163086 87.073 -16.0402
217.529297 87.071 -16.0655
217.895508 87.070 -16.0908
218.261719 87.069 -16.1161
218.627930 87.068 -16.1414
218.994141 87.066 -16.1667
219.360352 87.065 -16.1920
219.726562 87.064 -16.2173
220.092773 87.062 -16.2426
220.458984 87.061 -16.2679
220.825195 87.060 -16.2932
221.191406 87.059 -16.3184
221.557617 87.057 -16.3436
221.923828 87.056 -16.3689
222.290039 87.055 -16.3941
222.656250 87.053 -16.4193
223.022461 87.052 -16.4445
223.388672 87.051 -16.4697
223.754883 87.049 -16.4949
224.121094 87.048 -16.5201
224.487305 87.047 -16.5453
224.853516 87.045 -16.5704
225.219727 87.044 -16.5956
225.585938 87.043 -16.6207
225.952148 87.041 -16.6458
226.318359 87.040 -16.6709
226.684570 87.039 -16.6960
227.050781 87.037 -16.7211
227.416992 87.036 -16.7462
227.783203 87.035 -16.7713
228.149414 87.033 -16.7964
228.515625 87.032 -16.8215
228.881836 87.031 -16.8465
229.248047 87.029 -16.8715
229.614258 87.028 -16.8966
229.980469 87.027 -16.9216
230.346680 87.025 -16.9467
230.712891 87.024 -16.9717
231.079102 87.023 -16.9967
231.445312 87.021 -17.0218
231.811523 87.020 -17.0468
232.177734 87.019 -17.0718
232.543945 87.017 -17.0968
232.910156 87.016 -17.1218
233.276367 87.014 -17.1468
233.642578 87.013 -17.1718
234.008789 87.012 -17.1967
234.375000 87.010 -17.2217
234.741211 87.009 -17.2466
235.107422 87.008 -17.2715
235.473633 87.006 -17.2964
235.839844 87.005 -17.3213
236.206055 87.004 -17.3462
236.572266 87.002 -17.3711
236.938477 87.001 -17.3960
237.304688 86.999 -17.4208
237.670898 86.998 -17.4457
238.037109 86.997 -17.4705
238.403320 86.995 -17.4953
238.769531 86.994 -17.5201
239.135742 86.992 -17.5449
239.501953 86.991 -17.5698
239.868164 86.990 -17.5946
240.234375 86.988 -17.6194
240.600586 86.987 -17.6442
240.966797 86.985 -17.6690
241.333008 86.984 -17.6938
241.699219 86.983 -17.7186
242.065430 86.981 -17.7433
242.431641 86.980 -17.7681
242.797852 86.978 -17.7929
243.164062 86.977 -17.8177
243.530273 86.976 -17.8424
243.896484 86.974 -17.8671
244.262695 86.973 -17.8919
244.628906 86.971 -17.9166
244.995117 86.970 -17.9412
245.361328 86.969 -17.9659
245.727539 86.967 -17.9906
246.093750 86.966 -18.0152
246.459961 86.964 -18.0399
246.826172 86.963 -18.0645
247.192383 86.961 -18.0891
247.558594 86.960 -18.1138
247.924805 86.959 -18.1384
248.291016 86.957 -18.1630
248.657227 86.956 -18.1875
249.023438 86.954 -18.2121
249.389648 86.953 -18.2367
249.755859 86.951 -18.2613
250.122070 86.950 -18.2859
250.488281 86.949 -18.3104
250.854492 86.947 -18.3350
251.220703 86.946 -18.3595
251.586914 86.944 -18.3841
251.953125 86.943 -18.4086
252.319336 86.941 -18.4332
252.685547 86.940 -18.4577
253.051758 86.938 -18.4822
253.417969 86.937 -18.5067
253.784180 86.936 -18.5312
254.150391 86.934 -18.5557
254.516602 86.933 -18.5801
254.882812 86.931 -18.6046
255.249023 86.930 -18.6290
255.615234 86.928 -18.6535
255.981445 86.927 -18.6779
256.347656 86.925 -18.7023
256.713867 86.924 -18.7267
257.080078 86.922 -18.7511
257.446289 86.921 -18.7755
257.812500 86.919 -18.7999
258.178711 86.918 -18.8243
258.544922 86.916 -18.8486
258.911133 86.915 -18.8730
259.277344 86.914 -18.8973
259.643555 86.912 -18.9216
260.009766 86.911 -18.9460
260.375977 86.909 -18.9703
260.742188 86.908 -18.9946
261.108398 86.906 -19.0189
261.474609 86.905 -19.0431
261.840820 86.903 -19.0674
262.207031 86.902 -19.0917
262.573242 86.900 -19.1160
262.939453 86.899 -19.1403
263.305664 86.897 -19.1645
263.671875 86.896 -19.1888
264.038086 86.894 -19.2130
264.404297 86.893 -19.2372
264.770508 86.891 -19.2614
265.136719 86.890 -19.2857
265.502930 86.888 -19.3099
265.869141 86.887 -19.3341
266.235352 86.885 -19.3582
266.601562 86.884 -19.3824
266.967773 86.882 -19.4066
267.333984 86.881 -19.4307
267.700195 86.879 -19.4549
268.066406 86.878 -19.4790
268.432617 86.876 -19.5031
268.798828 86.875 -19.5272
269.165039 86.873 -19.5513
269.531250 86.871 -19.5754
269.897461 86.870 -19.5994
270.263672 86.868 -19.6235
270.629883 86.867 -19.6475
270.996094 86.865 -19.6716
271.362305 86.864 -19.6956
271.728516 86.862 -19.7196
272.094727 86.861 -19.7437
272.460938 86.859 -19.7677
272.827148 86.858 -19.7917
273.193359 86.856 -19.8157
273.559570 86.855 -19.8397
273.925781 86.853 -19.8637
274.291992 86.852 -19.8877
274.658203 86.850 -19.9117
275.024414 86.848 -19.9357
275.390625 86.847 -19.9597
275.756836 86.845 -19.9836
276.123047 86.844 -20.0075
276.489258 86.842 -20.0315
276.855469 86.841 -20.0554
277.221680 86.839 -20.0792
277.587891 86.838 -20.1031
277.954102 86.836 -20.1270
278.320312 86.834 -20.1509
278.686523 86.833 -20.1747
279.052734 86.831 -20.1986
279.418945 86.830 -20.2224
279.785156 86.828 -20.2462
280.151367 86.827 -20.2700
280.517578 86.825 -20.2938
280.883789 86.824 -20.3176
281.250000 86.822 -20.3414
281.616211 86.820 -20.3652
281.982422 86.819 -20.3890
282.348633 86.817 -20.4128
282.714844 86.816 -20.4365
283.081055 86.814 -20.4603
283.447266 86.812 -20.4840
283.813477 86.811 -20.5078
284.179688 86.809 -20.5315
284.545898 86.808 -20.5552
284.912109 86.806 -20.5789
285.278320 86.805 -20.6026
285.644531 86.803 -20.6263
286.010742 86.801 -20.6500
286.376953 86.800 -20.6737
286.743164 86.798 -20.6973
287.109375 86.797 -20.7210
287.475586 86.795 -20.7446
287.841797 86.793 -20.7682
288.208008 86.792 -20.7919
288.574219 86.790 -20.8155
288.940430 86.789 -20.8391
289.306641 86.787 -20.8627
289.672852 86.785 -20.8863
290.039062 86.784 -20.9098
290.405273 86.782 -20.9334
290.771484 86.781 -20.9569
291.137695 86.779 -20.9805
291.503906 86.777 -21.0040
291.870117 86.776 -21.0275
292.236328 86.774 -21.0510
292.602539 86.772 -21.0745
292.968750 86.771 -21.0980
293.334961 86.769 -21.1215
293.701172 86.768 -21.1449
294.067383 86.766 -21.1684
294.433594 86.764 -21.1919
294.799805 86.763 -21.2153
295.166016 86.761 -21.2388
295.532227 86.760 -21.2622
295.898438 86.758 -21.2856
296.264648 86.756 -21.3090
296.630859 86.755 -21.3325
296.997070 86.753 -21.3559
297.363281 86.751 -21.3793
297.729492 86.750 -21.4026
