* Freq(Hz) SPL(dB) Phase(degrees)
20.141602 92.999 -0.1360
20.507812 93.016 0.0225
20.874023 93.020 0.2161
21.240234 93.018 0.4045
21.606445 93.010 0.5590
21.972656 92.997 0.6689
22.338867 92.980 0.7373
22.705078 92.961 0.7717
23.071289 92.942 0.7770
23.437500 92.926 0.7545
23.803711 92.913 0.7054
24.169922 92.904 0.6348
24.536133 92.899 0.5520
24.902344 92.896 0.4675
25.268555 92.897 0.3895
25.634766 92.902 0.3225
26.000977 92.909 0.2689
26.367188 92.919 0.2301
26.733398 92.929 0.2083
27.099609 92.939 0.2050
27.465820 92.949 0.2201
27.832031 92.957 0.2513
28.198242 92.964 0.2950
28.564453 92.970 0.3472
28.930664 92.973 0.4041
29.296875 92.974 0.4626
29.663086 92.973 0.5193
30.029297 92.971 0.5713
30.395508 92.966 0.6158
30.761719 92.961 0.6506
31.127930 92.955 0.6746
31.494141 92.948 0.6874
31.860352 92.942 0.6894
32.226562 92.937 0.6814
32.592773 92.932 0.6652
32.958984 92.928 0.6426
33.325195 92.926 0.6161
33.691406 92.925 0.5878
34.057617 92.925 0.5602
34.423828 92.927 0.5351
34.790039 92.930 0.5145
35.156250 92.933 0.4998
35.522461 92.937 0.4921
35.888672 92.942 0.4917
36.254883 92.946 0.4985
36.621094 92.950 0.5119
36.987305 92.953 0.5311
37.353516 92.956 0.5548
37.719727 92.958 0.5817
38.085938 92.959 0.6104
38.452148 92.959 0.6392
38.818359 92.959 0.6667
39.184570 92.957 0.6917
39.550781 92.955 0.7131
39.916992 92.953 0.7303
40.283203 92.950 0.7427
40.649414 92.948 0.7505
41.015625 92.945 0.7536
41.381836 92.943 0.7527
41.748047 92.941 0.7484
42.114258 92.939 0.7416
42.480469 92.938 0.7333
42.846680 92.938 0.7243
43.212891 92.939 0.7159
43.579102 92.939 0.7087
43.945312 92.941 0.7036
44.311523 92.942 0.7011
44.677734 92.944 0.7014
45.043945 92.946 0.7049
45.410156 92.948 0.7113
45.776367 92.950 0.7205
46.142578 92.951 0.7321
46.508789 92.952 0.7456
46.875000 92.953 0.7603
47.241211 92.954 0.7757
47.607422 92.954 0.7911
47.973633 92.954 0.8060
48.339844 92.953 0.8198
48.706055 92.953 0.8323
49.072266 92.952 0.8430
49.438477 92.951 0.8519
49.804688 92.950 0.8590
50.170898 92.949 0.8643
50.537109 92.948 0.8680
50.903320 92.947 0.8704
51.269531 92.947 0.8718
51.635742 92.946 0.8726
52.001953 92.946 0.8732
52.368164 92.946 0.8739
52.734375 92.947 0.8750
53.100586 92.947 0.8767
53.466797 92.948 0.8793
53.833008 92.948 0.8829
54.199219 92.949 0.8875
54.565430 92.950 0.8931
54.931641 92.951 0.8996
55.297852 92.951 0.9069
55.664062 92.952 0.9148
56.030273 92.952 0.9233
56.396484 92.953 0.9320
56.762695 92.953 0.9408
57.128906 92.953 0.9496
57.495117 92.953 0.9582
57.861328 92.953 0.9665
58.227539 92.953 0.9744
58.593750 92.953 0.9819
58.959961 92.953 0.9888
59.326172 92.952 0.9954
59.692383 92.952 1.0016
60.058594 92.952 1.0074
60.424805 92.952 1.0129
60.791016 92.952 1.0181
61.157227 92.952 1.0232
61.523438 92.952 1.0281
61.889648 92.952 1.0330
62.255859 92.952 1.0379
62.622070 92.952 1.0429
62.988281 92.952 1.0479
63.354492 92.953 1.0529
63.720703 92.953 1.0581
64.086914 92.953 1.0633
64.453125 92.953 1.0687
64.819336 92.954 1.0743
65.185547 92.954 1.0799
65.551758 92.954 1.0857
65.917969 92.954 1.0917
66.284180 92.955 1.0978
66.650391 92.955 1.1041
67.016602 92.955 1.1105
67.382812 92.955 1.1171
67.749023 92.956 1.1238
68.115234 92.956 1.1306
68.481445 92.956 1.1375
68.847656 92.956 1.1445
69.213867 92.956 1.1514
69.580078 92.956 1.1584
69.946289 92.956 1.1652
70.312500 92.956 1.1720
70.678711 92.957 1.1785
71.044922 92.957 1.1849
71.411133 92.957 1.1910
71.777344 92.957 1.1969
72.143555 92.957 1.2026
72.509766 92.957 1.2080
72.875977 92.957 1.2133
73.242188 92.957 1.2184
73.608398 92.957 1.2233
73.974609 92.957 1.2283
74.340820 92.957 1.2332
74.707031 92.957 1.2382
75.073242 92.958 1.2434
75.439453 92.958 1.2487
75.805664 92.958 1.2542
76.171875 92.958 1.2599
76.538086 92.959 1.2659
76.904297 92.959 1.2721
77.270508 92.959 1.2786
77.636719 92.960 1.2852
78.002930 92.960 1.2920
78.369141 92.960 1.2989
78.735352 92.960 1.3058
79.101562 92.960 1.3128
79.467773 92.961 1.3196
79.833984 92.961 1.3264
80.200195 92.961 1.3330
80.566406 92.961 1.3394
80.932617 92.961 1.3456
81.298828 92.961 1.3516
81.665039 92.961 1.3573
82.031250 92.961 1.3629
82.397461 92.961 1.3684
82.763672 92.961 1.3737
83.129883 92.961 1.3790
83.496094 92.961 1.3842
83.862305 92.962 1.3894
84.228516 92.962 1.3947
84.594727 92.962 1.4001
84.960938 92.962 1.4055
85.327148 92.963 1.4112
85.693359 92.963 1.4169
86.059570 92.963 1.4228
86.425781 92.963 1.4289
86.791992 92.964 1.4350
87.158203 92.964 1.4413
87.524414 92.964 1.4476
87.890625 92.964 1.4540
88.256836 92.965 1.4604
88.623047 92.965 1.4668
88.989258 92.965 1.4732
89.355469 92.965 1.4795
89.721680 92.965 1.4858
90.087891 92.965 1.4919
90.454102 92.966 1.4980
90.820312 92.966 1.5040
91.186523 92.966 1.5100
91.552734 92.966 1.5159
91.918945 92.966 1.5217
92.285156 92.966 1.5275
92.651367 92.966 1.5332
93.017578 92.967 1.5389
93.383789 92.967 1.5446
93.750000 92.967 1.5503
94.116211 92.967 1.5560
94.482422 92.967 1.5617
94.848633 92.968 1.5674
95.214844 92.968 1.5731
95.581055 92.968 1.5789
95.947266 92.968 1.5846
96.313477 92.968 1.5904
96.679688 92.969 1.5962
97.045898 92.969 1.6021
97.412109 92.969 1.6080
97.778320 92.969 1.6139
98.144531 92.970 1.6198
98.510742 92.970 1.6258
98.876953 92.970 1.6318
99.243164 92.970 1.6378
99.609375 92.970 1.6439
99.975586 92.971 1.6500
100.341797 92.971 1.6561
100.708008 92.971 1.6622
101.074219 92.971 1.6683
101.440430 92.972 1.6744
101.806641 92.972 1.6805
102.172852 92.972 1.6865
102.539062 92.972 1.6925
102.905273 92.972 1.6984
103.271484 92.972 1.7043
103.637695 92.973 1.7101
104.003906 92.973 1.7159
104.370117 92.973 1.7216
104.736328 92.973 1.7272
105.102539 92.973 1.7328
105.468750 92.974 1.7384
105.834961 92.974 1.7440
106.201172 92.974 1.7495
106.567383 92.974 1.7551
106.933594 92.975 1.7608
107.299805 92.975 1.7665
107.666016 92.975 1.7722
108.032227 92.975 1.7780
108.398438 92.976 1.7839
108.764648 92.976 1.7898
109.130859 92.976 1.7958
109.497070 92.976 1.8019
109.863281 92.977 1.8080
110.229492 92.977 1.8141
110.595703 92.977 1.8202
110.961914 92.977 1.8263
111.328125 92.978 1.8324
111.694336 92.978 1.8385
112.060547 92.978 1.8444
112.426758 92.978 1.8504
112.792969 92.978 1.8562
113.159180 92.979 1.8621
113.525391 92.979 1.8678
113.891602 92.979 1.8735
114.257812 92.979 1.8791
114.624023 92.979 1.8847
114.990234 92.980 1.8903
115.356445 92.980 1.8959
115.722656 92.980 1.9014
116.088867 92.980 1.9070
116.455078 92.981 1.9127
116.821289 92.981 1.9183
117.187500 92.981 1.9240
117.553711 92.981 1.9298
117.919922 92.982 1.9356
118.286133 92.982 1.9414
118.652344 92.982 1.9473
119.018555 92.982 1.9532
119.384766 92.983 1.9591
119.750977 92.983 1.9651
120.117188 92.983 1.9710
120.483398 92.983 1.9770
120.849609 92.984 1.9829
121.215820 92.984 1.9888
121.582031 92.984 1.9947
121.948242 92.984 2.0005
122.314453 92.985 2.0063
122.680664 92.985 2.0121
123.046875 92.985 2.0179
123.413086 92.985 2.0237
123.779297 92.986 2.0294
124.145508 92.986 2.0351
124.511719 92.986 2.0407
124.877930 92.986 2.0464
125.244141 92.987 2.0521
125.610352 92.987 2.0578
125.976562 92.987 2.0634
126.342773 92.987 2.0691
126.708984 92.988 2.0748
127.075195 92.988 2.0805
127.441406 92.988 2.0862
127.807617 92.988 2.0919
128.173828 92.989 2.0975
128.540039 92.989 2.1033
128.906250 92.989 2.1090
129.272461 92.990 2.1147
129.638672 92.990 2.1204
130.004883 92.990 2.1262
130.371094 92.990 2.1320
130.737305 92.991 2.1377
131.103516 92.991 2.1435
131.469727 92.991 2.1493
131.835938 92.991 2.1551
132.202148 92.992 2.1609
132.568359 92.992 2.1667
132.934570 92.992 2.1725
133.300781 92.993 2.1783
133.666992 92.993 2.1840
134.033203 92.993 2.1898
134.399414 92.993 2.1955
134.765625 92.994 2.2013
135.131836 92.994 2.2070
135.498047 92.994 2.2126
135.864258 92.994 2.2183
136.230469 92.995 2.2239
136.596680 92.995 2.2295
136.962891 92.995 2.2351
137.329102 92.995 2.2406
137.695312 92.996 2.2462
138.061523 92.996 2.2518
138.427734 92.996 2.2573
138.793945 92.997 2.2629
139.160156 92.997 2.2685
139.526367 92.997 2.2742
139.892578 92.997 2.2798
140.258789 92.998 2.2855
140.625000 92.998 2.2912
140.991211 92.998 2.2969
141.357422 92.999 2.3027
141.723633 92.999 2.3084
142.089844 92.999 2.3142
142.456055 93.000 2.3200
142.822266 93.000 2.3257
143.188477 93.000 2.3315
143.554688 93.000 2.3372
143.920898 93.001 2.3430
144.287109 93.001 2.3486
144.653320 93.001 2.3543
145.019531 93.002 2.3599
145.385742 93.002 2.3655
145.751953 93.002 2.3711
146.118164 93.002 2.3766
146.484375 93.003 2.3822
146.850586 93.003 2.3877
147.216797 93.003 2.3932
147.583008 93.004 2.3987
147.949219 93.004 2.4042
148.315430 93.004 2.4098
148.681641 93.004 2.4153
149.047852 93.005 2.4209
149.414062 93.005 2.4264
149.780273 93.005 2.4321
150.146484 93.006 2.4377
150.512695 93.006 2.4433
150.878906 93.006 2.4490
151.245117 93.007 2.4546
151.611328 93.007 2.4603
151.977539 93.007 2.4660
152.343750 93.008 2.4716
152.709961 93.008 2.4773
153.076172 93.008 2.4829
153.442383 93.008 2.4885
153.808594 93.009 2.4942
154.174805 93.009 2.4998
154.541016 93.009 2.5053
154.907227 93.010 2.5109
155.273438 93.010 2.5164
155.639648 93.010 2.5220
156.005859 93.011 2.5275
156.372070 93.011 2.5330
156.738281 93.011 2.5386
157.104492 93.012 2.5441
157.470703 93.012 2.5496
157.836914 93.012 2.5551
158.203125 93.012 2.5606
158.569336 93.013 2.5661
158.935547 93.013 2.5716
159.301758 93.013 2.5771
159.667969 93.014 2.5827
160.034180 93.014 2.5882
160.400391 93.014 2.5937
160.766602 93.015 2.5992
161.132812 93.015 2.6047
161.499023 93.015 2.6103
161.865234 93.016 2.6158
162.231445 93.016 2.6213
162.597656 93.016 2.6269
162.963867 93.017 2.6324
163.330078 93.017 2.6379
163.696289 93.017 2.6435
164.062500 93.018 2.6490
164.428711 93.018 2.6546
164.794922 93.018 2.6601
165.161133 93.019 2.6657
165.527344 93.019 2.6712
165.893555 93.019 2.6767
166.259766 93.020 2.6822
166.625977 93.020 2.6877
166.992188 93.020 2.6932
167.358398 93.021 2.6987
167.724609 93.021 2.7041
168.090820 93.021 2.7096
168.457031 93.022 2.7150
168.823242 93.022 2.7204
169.189453 93.022 2.7258
169.555664 93.023 2.7312
169.921875 93.023 2.7366
170.288086 93.023 2.7420
170.654297 93.024 2.7474
171.020508 93.024 2.7528
171.386719 93.024 2.7583
171.752930 93.025 2.7637
172.119141 93.025 2.7692
172.485352 93.025 2.7747
172.851562 93.026 2.7801
173.217773 93.026 2.7856
173.583984 93.026 2.7911
173.950195 93.027 2.7966
174.316406 93.027 2.8021
174.682617 93.027 2.8076
175.048828 93.028 2.8131
175.415039 93.028 2.8185
175.781250 93.028 2.8240
176.147461 93.029 2.8294
176.513672 93.029 2.8349
176.879883 93.030 2.8403
177.246094 93.030 2.8457
177.612305 93.030 2.8510
177.978516 93.031 2.8564
178.344727 93.031 2.8617
178.710938 93.031 2.8671
179.077148 93.032 2.8724
179.443359 93.032 2.8778
179.809570 93.032 2.8831
180.175781 93.033 2.8884
180.541992 93.033 2.8938
180.908203 93.033 2.8991
181.274414 93.034 2.9045
181.640625 93.034 2.9099
182.006836 93.034 2.9152
182.373047 93.035 2.9206
182.739258 93.035 2.9260
183.105469 93.036 2.9314
183.471680 93.036 2.9368
183.837891 93.036 2.9422
184.204102 93.037 2.9476
184.570312 93.037 2.9530
184.936523 93.037 2.9584
185.302734 93.038 2.9638
185.668945 93.038 2.9691
186.035156 93.038 2.9745
186.401367 93.039 2.9798
186.767578 93.039 2.9852
187.133789 93.040 2.9905
187.500000 93.040 2.9958
187.866211 93.040 3.0011
188.232422 93.041 3.0064
188.598633 93.041 3.0117
188.964844 93.041 3.0170
189.331055 93.042 3.0223
189.697266 93.042 3.0276
190.063477 93.042 3.0329
190.429688 93.043 3.0382
190.795898 93.043 3.0435
191.162109 93.044 3.0488
191.528320 93.044 3.0540
191.894531 93.044 3.0593
192.260742 93.045 3.0646
192.626953 93.045 3.0699
192.993164 93.045 3.0752
193.359375 93.046 3.0804
193.725586 93.046 3.0857
194.091797 93.047 3.0910
194.458008 93.047 3.0963
194.824219 93.047 3.1016
195.190430 93.048 3.1069
195.556641 93.048 3.1121
195.922852 93.048 3.1174
196.289062 93.049 3.1227
196.655273 93.049 3.1280
197.021484 93.050 3.1333
197.387695 93.050 3.1385
197.753906 93.050 3.1438
198.120117 93.051 3.1491
198.486328 93.051 3.1543
198.852539 93.052 3.1596
199.218750 93.052 3.1648
199.584961 93.052 3.1700
199.951172 93.053 3.1752
200.317383 93.053 3.1804
200.683594 93.053 3.1856
201.049805 93.054 3.1908
201.416016 93.054 3.1960
201.782227 93.055 3.2012
202.148438 93.055 3.2063
202.514648 93.055 3.2115
202.880859 93.056 3.2167
203.247070 93.056 3.2219
203.613281 93.057 3.2271
203.979492 93.057 3.2323
204.345703 93.057 3.2375
204.711914 93.058 3.2427
205.078125 93.058 3.2479
205.444336 93.059 3.2531
205.810547 93.059 3.2583
206.176758 93.059 3.2635
206.542969 93.060 3.2687
206.909180 93.060 3.2740
207.275391 93.061 3.2791
207.641602 93.061 3.2843
208.007812 93.061 3.2895
208.374023 93.062 3.2947
208.740234 93.062 3.2998
209.106445 93.062 3.3050
209.472656 93.063 3.3101
209.838867 93.063 3.3152
210.205078 93.064 3.3203
210.571289 93.064 3.3254
210.937500 93.064 3.3306
211.303711 93.065 3.3357
211.669922 93.065 3.3408
212.036133 93.066 3.3459
212.402344 93.066 3.3510
212.768555 93.067 3.3561
213.134766 93.067 3.3612
213.500977 93.067 3.3663
213.867188 93.068 3.3714
214.233398 93.068 3.3765
214.599609 93.069 3.3817
214.965820 93.069 3.3868
215.332031 93.069 3.3919
215.698242 93.070 3.3970
216.064453 93.070 3.4021
216.430664 93.071 3.4072
216.796875 93.071 3.4124
217.163086 93.071 3.4174
217.529297 93.072 3.4225
217.895508 93.072 3.4276
218.261719 93.073 3.4327
218.627930 93.073 3.4378
218.994141 93.073 3.4428
219.360352 93.074 3.4479
219.726562 93.074 3.4529
220.092773 93.075 3.4580
220.458984 93.075 3.4630
220.825195 93.076 3.4681
221.191406 93.076 3.4731
221.557617 93.076 3.4781
221.923828 93.077 3.4832
222.290039 93.077 3.4882
222.656250 93.078 3.4932
223.022461 93.078 3.4982
223.388672 93.078 3.5033
223.754883 93.079 3.5083
224.121094 93.079 3.5133
224.487305 93.080 3.5183
224.853516 93.080 3.5233
225.219727 93.081 3.5283
225.585938 93.081 3.5333
225.952148 93.081 3.5384
226.318359 93.082 3.5434
226.684570 93.082 3.5484
227.050781 93.083 3.5534
227.416992 93.083 3.5584
227.783203 93.084 3.5634
228.149414 93.084 3.5684
228.515625 93.084 3.5734
228.881836 93.085 3.5784
229.248047 93.085 3.5834
229.614258 93.086 3.5884
229.980469 93.086 3.5933
230.346680 93.087 3.5983
230.712891 93.087 3.6033
231.079102 93.087 3.6082
231.445312 93.088 3.6132
231.811523 93.088 3.6181
232.177734 93.089 3.6231
232.543945 93.089 3.6280
232.910156 93.090 3.6329
233.276367 93.090 3.6378
233.642578 93.090 3.6427
234.008789 93.091 3.6477
234.375000 93.091 3.6526
234.741211 93.092 3.6575
235.107422 93.092 3.6624
235.473633 93.093 3.6673
235.839844 93.093 3.6722
236.206055 93.094 3.6772
236.572266 93.094 3.6821
236.938477 93.094 3.6870
237.304688 93.095 3.6919
237.670898 93.095 3.6969
238.037109 93.096 3.7018
238.403320 93.096 3.7067
238.769531 93.097 3.7116
239.135742 93.097 3.7165
239.501953 93.097 3.7214
239.868164 93.098 3.7263
240.234375 93.098 3.7312
240.600586 93.099 3.7361
240.966797 93.099 3.7409
241.333008 93.100 3.7458
241.699219 93.100 3.7506
242.065430 93.101 3.7555
242.431641 93.101 3.7603
242.797852 93.101 3.7651
243.164062 93.102 3.7700
243.530273 93.102 3.7748
243.896484 93.103 3.7796
244.262695 93.103 3.7844
244.628906 93.104 3.7893
244.995117 93.104 3.7941
245.361328 93.105 3.7989
245.727539 93.105 3.8038
246.093750 93.106 3.8086
246.459961 93.106 3.8134
246.826172 93.106 3.8183
247.192383 93.107 3.8231
247.558594 93.107 3.8279
247.924805 93.108 3.8327
248.291016 93.108 3.8375
248.657227 93.109 3.8424
249.023438 93.109 3.8472
249.389648 93.110 3.8520
249.755859 93.110 3.8568
250.122070 93.111 3.8616
250.488281 93.111 3.8663
250.854492 93.111 3.8711
251.220703 93.112 3.8759
251.586914 93.112 3.8807
251.953125 93.113 3.8854
252.319336 93.113 3.8902
252.685547 93.114 3.8949
253.051758 93.114 3.8997
253.417969 93.115 3.9044
253.784180 93.115 3.9092
254.150391 93.116 3.9139
254.516602 93.116 3.9186
254.882812 93.116 3.9234
255.249023 93.117 3.9281
255.615234 93.117 3.9328
255.981445 93.118 3.9376
256.347656 93.118 3.9423
256.713867 93.119 3.9470
257.080078 93.119 3.9517
257.446289 93.120 3.9565
257.812500 93.120 3.9612
258.178711 93.121 3.9659
258.544922 93.121 3.9706
258.911133 93.122 3.9753
259.277344 93.122 3.9800
259.643555 93.123 3.9847
260.009766 93.123 3.9894
260.375977 93.123 3.9941
260.742188 93.124 3.9988
261.108398 93.124 4.0035
261.474609 93.125 4.0082
261.840820 93.125 4.0129
262.207031 93.126 4.0176
262.573242 93.126 4.0222
262.939453 93.127 4.0269
263.305664 93.127 4.0315
263.671875 93.128 4.0362
264.038086 93.128 4.0408
264.404297 93.129 4.0455
264.770508 93.129 4.0501
265.136719 93.130 4.0547
265.502930 93.130 4.0594
265.869141 93.131 4.0640
266.235352 93.131 4.0686
266.601562 93.131 4.0732
266.967773 93.132 4.0779
267.333984 93.132 4.0825
267.700195 93.133 4.0871
268.066406 93.133 4.0917
268.432617 93.134 4.0963
268.798828 93.134 4.1009
269.165039 93.135 4.1056
269.531250 93.135 4.1102
269.897461 93.136 4.1148
270.263672 93.136 4.1194
270.629883 93.137 4.1240
270.996094 93.137 4.1286
271.362305 93.138 4.1332
271.728516 93.138 4.1378
272.094727 93.139 4.1424
272.460938 93.139 4.1469
272.827148 93.140 4.1515
273.193359 93.140 4.1561
273.559570 93.141 4.1606
273.925781 93.141 4.1652
274.291992 93.142 4.1697
274.658203 93.142 4.1743
275.024414 93.143 4.1788
275.390625 93.143 4.1833
275.756836 93.144 4.1878
276.123047 93.144 4.1924
276.489258 93.144 4.1969
276.855469 93.145 4.2014
277.221680 93.145 4.2060
277.587891 93.146 4.2105
277.954102 93.146 4.2150
278.320312 93.147 4.2195
278.686523 93.147 4.2240
279.052734 93.148 4.2286
279.418945 93.148 4.2331
279.785156 93.149 4.2376
280.151367 93.149 4.2421
280.517578 93.150 4.2466
280.883789 93.150 4.2511
281.250000 93.151 4.2556
281.616211 93.151 4.2601
281.982422 93.152 4.2646
282.348633 93.152 4.2691
282.714844 93.153 4.2735
283.081055 93.153 4.2780
283.447266 93.154 4.2825
283.813477 93.154 4.2869
284.179688 93.155 4.2914
284.545898 93.155 4.2958
284.912109 93.156 4.3003
285.278320 93.156 4.3047
285.644531 93.157 4.3091
286.010742 93.157 4.3136
286.376953 93.158 4.3180
286.743164 93.158 4.3224
287.109375 93.159 4.3269
287.475586 93.159 4.3313
287.841797 93.160 4.3357
288.208008 93.160 4.3401
288.574219 93.161 4.3445
288.940430 93.161 4.3490
289.306641 93.162 4.3534
289.672852 93.162 4.3578
290.039062 93.163 4.3622
290.405273 93.163 4.3666
290.771484 93.164 4.3710
291.137695 93.164 4.3754
291.503906 93.165 4.3798
291.870117 93.165 4.3842
292.236328 93.166 4.3885
292.602539 93.166 4.3929
292.968750 93.167 4.3973
293.334961 93.167 4.4017
293.701172 93.168 4.4060
294.067383 93.168 4.4104
294.433594 93.169 4.4147
294.799805 93.169 4.4191
295.166016 93.170 4.4235
295.532227 93.170 4.4278
295.898438 93.171 4.4321
296.264648 93.171 4.4365
296.630859 93.172 4.4408
296.997070 93.172 4.4451
297.363281 93.173 4.4494
297.729492 93.173 4.4537
298.095703 93.174 4.4581
298.461914 93.174 4.4624
298.828125 93.175 4.4667
299.194336 93.175 4.4710
299.560547 93.176 4.4753
299.926758 93.176 4.4796
300.292969 93.177 4.4839
300.659180 93.177 4.4882
301.025391 93.178 4.4925
301.391602 93.179 4.4968
301.757812 93.179 4.5011
302.124023 93.180 4.5054
302.490234 93.180 4.5097
302.856445 93.181 4.5139
303.222656 93.181 4.5182
303.588867 93.182 4.5225
303.955078 93.182 4.5268
304.321289 93.183 4.5310
304.687500 93.183 4.5353
305.053711 93.184 4.5395
305.419922 93.184 4.5438
305.786133 93.185 4.5480
306.152344 93.185 4.5522
306.518555 93.186 4.5565
306.884766 93.186 4.5607
307.250977 93.187 4.5649
307.617188 93.187 4.5691
307.983398 93.188 4.5733
308.349609 93.188 4.5776
308.715820 93.189 4.5818
309.082031 93.189 4.5860
309.448242 93.190 4.5902
309.814453 93.190 4.5944
310.180664 93.191 4.5986
310.546875 93.191 4.6028
310.913086 93.192 4.6070
311.279297 93.192 4.6112
311.645508 93.193 4.6154
312.011719 93.194 4.6196
312.377930 93.194 4.6237
312.744141 93.195 4.6279
313.110352 93.195 4.6321
313.476562 93.196 4.6363
313.842773 93.196 4.6404
314.208984 93.197 4.6446
314.575195 93.197 4.6487
314.941406 93.198 4.6529
315.307617 93.198 4.6570
