* Freq(Hz) SPL(dB) Phase(degrees)
20.141602 94.548 -0.2480
20.507812 94.565 -0.0915
20.874023 94.569 0.0999
21.240234 94.567 0.2863
21.606445 94.559 0.4387
21.972656 94.546 0.5465
22.338867 94.529 0.6128
22.705078 94.510 0.6451
23.071289 94.491 0.6483
23.437500 94.475 0.6236
23.803711 94.462 0.5725
24.169922 94.453 0.4998
24.536133 94.448 0.4150
24.902344 94.445 0.3285
25.268555 94.446 0.2484
25.634766 94.451 0.1795
26.000977 94.458 0.1238
26.367188 94.468 0.0831
26.733398 94.478 0.0594
27.099609 94.488 0.0541
27.465820 94.497 0.0671
27.832031 94.506 0.0964
28.198242 94.513 0.1381
28.564453 94.519 0.1883
28.930664 94.522 0.2432
29.296875 94.523 0.2995
29.663086 94.522 0.3542
30.029297 94.519 0.4042
30.395508 94.515 0.4466
30.761719 94.509 0.4793
31.127930 94.503 0.5012
31.494141 94.497 0.5119
31.860352 94.491 0.5118
32.226562 94.485 0.5018
32.592773 94.480 0.4834
32.958984 94.477 0.4588
33.325195 94.474 0.4302
33.691406 94.473 0.3999
34.057617 94.474 0.3703
34.423828 94.476 0.3432
34.790039 94.478 0.3206
35.156250 94.482 0.3039
35.522461 94.486 0.2942
35.888672 94.490 0.2918
36.254883 94.494 0.2966
36.621094 94.498 0.3081
36.987305 94.502 0.3252
37.353516 94.504 0.3469
37.719727 94.506 0.3719
38.085938 94.507 0.3985
38.452148 94.507 0.4252
38.818359 94.507 0.4507
39.184570 94.505 0.4736
39.550781 94.503 0.4930
39.916992 94.501 0.5081
40.283203 94.498 0.5185
40.649414 94.496 0.5241
41.015625 94.493 0.5252
41.381836 94.491 0.5222
41.748047 94.489 0.5159
42.114258 94.487 0.5070
42.480469 94.486 0.4966
42.846680 94.486 0.4857
43.212891 94.486 0.4752
43.579102 94.487 0.4660
43.945312 94.488 0.4589
44.311523 94.490 0.4544
44.677734 94.492 0.4528
45.043945 94.494 0.4542
45.410156 94.495 0.4586
45.776367 94.497 0.4658
46.142578 94.499 0.4754
46.508789 94.500 0.4869
46.875000 94.501 0.4996
47.241211 94.501 0.5129
47.607422 94.501 0.5263
47.973633 94.501 0.5392
48.339844 94.501 0.5510
48.706055 94.500 0.5614
49.072266 94.499 0.5700
49.438477 94.498 0.5769
49.804688 94.497 0.5819
50.170898 94.496 0.5852
50.537109 94.495 0.5868
50.903320 94.494 0.5872
51.269531 94.494 0.5866
51.635742 94.494 0.5854
52.001953 94.493 0.5839
52.368164 94.493 0.5826
52.734375 94.494 0.5817
53.100586 94.494 0.5814
53.466797 94.495 0.5820
53.833008 94.495 0.5835
54.199219 94.496 0.5861
54.565430 94.497 0.5897
54.931641 94.497 0.5942
55.297852 94.498 0.5995
55.664062 94.499 0.6054
56.030273 94.499 0.6118
56.396484 94.499 0.6186
56.762695 94.499 0.6254
57.128906 94.500 0.6321
57.495117 94.500 0.6387
57.861328 94.499 0.6450
58.227539 94.499 0.6508
58.593750 94.499 0.6562
58.959961 94.499 0.6612
59.326172 94.499 0.6657
59.692383 94.499 0.6699
60.058594 94.498 0.6736
60.424805 94.498 0.6771
60.791016 94.498 0.6803
61.157227 94.498 0.6834
61.523438 94.498 0.6863
61.889648 94.498 0.6892
62.255859 94.498 0.6921
62.622070 94.498 0.6950
62.988281 94.498 0.6980
63.354492 94.499 0.7010
63.720703 94.499 0.7042
64.086914 94.499 0.7074
64.453125 94.499 0.7108
64.819336 94.499 0.7143
65.185547 94.500 0.7180
65.551758 94.500 0.7218
65.917969 94.500 0.7257
66.284180 94.500 0.7298
66.650391 94.500 0.7341
67.016602 94.501 0.7385
67.382812 94.501 0.7430
67.749023 94.501 0.7477
68.115234 94.501 0.7526
68.481445 94.501 0.7575
68.847656 94.501 0.7624
69.213867 94.502 0.7674
69.580078 94.502 0.7723
69.946289 94.502 0.7771
70.312500 94.502 0.7818
70.678711 94.502 0.7864
71.044922 94.502 0.7907
71.411133 94.502 0.7948
71.777344 94.501 0.7987
72.143555 94.501 0.8024
72.509766 94.501 0.8058
72.875977 94.501 0.8090
73.242188 94.501 0.8121
73.608398 94.502 0.8151
73.974609 94.502 0.8180
74.340820 94.502 0.8210
74.707031 94.502 0.8240
75.073242 94.502 0.8271
75.439453 94.502 0.8304
75.805664 94.503 0.8339
76.171875 94.503 0.8376
76.538086 94.503 0.8416
76.904297 94.503 0.8459
77.270508 94.504 0.8503
77.636719 94.504 0.8549
78.002930 94.504 0.8597
78.369141 94.504 0.8646
78.735352 94.504 0.8696
79.101562 94.504 0.8745
79.467773 94.505 0.8793
79.833984 94.505 0.8841
80.200195 94.505 0.8887
80.566406 94.505 0.8931
80.932617 94.505 0.8972
81.298828 94.505 0.9012
81.665039 94.505 0.9050
82.031250 94.505 0.9086
82.397461 94.505 0.9121
82.763672 94.505 0.9154
83.129883 94.505 0.9186
83.496094 94.505 0.9219
83.862305 94.505 0.9251
84.228516 94.505 0.9284
84.594727 94.505 0.9318
84.960938 94.506 0.9352
85.327148 94.506 0.9389
85.693359 94.506 0.9426
86.059570 94.506 0.9465
86.425781 94.506 0.9506
86.791992 94.507 0.9547
87.158203 94.507 0.9590
87.524414 94.507 0.9633
87.890625 94.507 0.9677
88.256836 94.507 0.9722
88.623047 94.507 0.9766
88.989258 94.508 0.9809
89.355469 94.508 0.9853
89.721680 94.508 0.9895
90.087891 94.508 0.9937
90.454102 94.508 0.9978
90.820312 94.508 1.0018
91.186523 94.508 1.0058
91.552734 94.508 1.0097
91.918945 94.508 1.0135
92.285156 94.508 1.0173
92.651367 94.508 1.0210
93.017578 94.509 1.0247
93.383789 94.509 1.0285
93.750000 94.509 1.0322
94.116211 94.509 1.0359
94.482422 94.509 1.0396
94.848633 94.509 1.0433
95.214844 94.509 1.0470
95.581055 94.510 1.0508
95.947266 94.510 1.0546
96.313477 94.510 1.0584
96.679688 94.510 1.0622
97.045898 94.510 1.0661
97.412109 94.510 1.0700
97.778320 94.511 1.0739
98.144531 94.511 1.0779
98.510742 94.511 1.0819
98.876953 94.511 1.0859
99.243164 94.511 1.0900
99.609375 94.511 1.0941
99.975586 94.512 1.0982
100.341797 94.512 1.1023
100.708008 94.512 1.1064
101.074219 94.512 1.1105
101.440430 94.512 1.1147
101.806641 94.512 1.1187
102.172852 94.512 1.1228
102.539062 94.512 1.1268
102.905273 94.513 1.1308
103.271484 94.513 1.1347
103.637695 94.513 1.1385
104.003906 94.513 1.1423
104.370117 94.513 1.1460
104.736328 94.513 1.1496
105.102539 94.513 1.1533
105.468750 94.513 1.1569
105.834961 94.514 1.1605
106.201172 94.514 1.1641
106.567383 94.514 1.1677
106.933594 94.514 1.1714
107.299805 94.514 1.1751
107.666016 94.515 1.1789
108.032227 94.515 1.1827
108.398438 94.515 1.1867
108.764648 94.515 1.1906
109.130859 94.515 1.1947
109.497070 94.516 1.1987
109.863281 94.516 1.2029
110.229492 94.516 1.2070
110.595703 94.516 1.2112
110.961914 94.516 1.2153
111.328125 94.516 1.2194
111.694336 94.516 1.2235
112.060547 94.517 1.2275
112.426758 94.517 1.2315
112.792969 94.517 1.2354
113.159180 94.517 1.2392
113.525391 94.517 1.2430
113.891602 94.517 1.2468
114.257812 94.517 1.2504
114.624023 94.518 1.2541
114.990234 94.518 1.2577
115.356445 94.518 1.2613
115.722656 94.518 1.2649
116.088867 94.518 1.2685
116.455078 94.518 1.2722
116.821289 94.519 1.2759
117.187500 94.519 1.2797
117.553711 94.519 1.2835
117.919922 94.519 1.2873
118.286133 94.519 1.2912
118.652344 94.520 1.2951
119.018555 94.520 1.2991
119.384766 94.520 1.3030
119.750977 94.520 1.3070
120.117188 94.520 1.3110
120.483398 94.520 1.3150
120.849609 94.521 1.3190
121.215820 94.521 1.3229
121.582031 94.521 1.3269
121.948242 94.521 1.3308
122.314453 94.521 1.3346
122.680664 94.521 1.3385
123.046875 94.522 1.3423
123.413086 94.522 1.3461
123.779297 94.522 1.3499
124.145508 94.522 1.3536
124.511719 94.522 1.3574
124.877930 94.522 1.3611
125.244141 94.523 1.3648
125.610352 94.523 1.3685
125.976562 94.523 1.3723
126.342773 94.523 1.3760
126.708984 94.523 1.3797
127.075195 94.524 1.3835
127.441406 94.524 1.3872
127.807617 94.524 1.3910
128.173828 94.524 1.3947
128.540039 94.524 1.3985
128.906250 94.525 1.4023
129.272461 94.525 1.4061
129.638672 94.525 1.4099
130.004883 94.525 1.4137
130.371094 94.525 1.4175
130.737305 94.525 1.4213
131.103516 94.526 1.4252
131.469727 94.526 1.4290
131.835938 94.526 1.4329
132.202148 94.526 1.4368
132.568359 94.526 1.4406
132.934570 94.527 1.4445
133.300781 94.527 1.4483
133.666992 94.527 1.4522
134.033203 94.527 1.4560
134.399414 94.527 1.4598
134.765625 94.528 1.4636
135.131836 94.528 1.4674
135.498047 94.528 1.4711
135.864258 94.528 1.4748
136.230469 94.528 1.4785
136.596680 94.528 1.4822
136.962891 94.529 1.4858
137.329102 94.529 1.4895
137.695312 94.529 1.4931
138.061523 94.529 1.4968
138.427734 94.529 1.5004
138.793945 94.530 1.5041
139.160156 94.530 1.5077
139.526367 94.530 1.5115
139.892578 94.530 1.5152
140.258789 94.531 1.5189
140.625000 94.531 1.5227
140.991211 94.531 1.5265
141.357422 94.531 1.5304
141.723633 94.531 1.5342
142.089844 94.532 1.5381
142.456055 94.532 1.5419
142.822266 94.532 1.5458
143.188477 94.532 1.5496
143.554688 94.532 1.5534
143.920898 94.533 1.5572
144.287109 94.533 1.5610
144.653320 94.533 1.5647
145.019531 94.533 1.5685
145.385742 94.533 1.5721
145.751953 94.533 1.5758
146.118164 94.534 1.5794
146.484375 94.534 1.5830
146.850586 94.534 1.5866
147.216797 94.534 1.5903
147.583008 94.535 1.5939
147.949219 94.535 1.5975
148.315430 94.535 1.6011
148.681641 94.535 1.6047
149.047852 94.535 1.6084
149.414062 94.536 1.6121
149.780273 94.536 1.6158
150.146484 94.536 1.6195
150.512695 94.536 1.6232
150.878906 94.536 1.6270
151.245117 94.537 1.6307
151.611328 94.537 1.6345
151.977539 94.537 1.6383
152.343750 94.537 1.6420
152.709961 94.538 1.6458
153.076172 94.538 1.6495
153.442383 94.538 1.6532
153.808594 94.538 1.6570
154.174805 94.538 1.6607
154.541016 94.539 1.6643
154.907227 94.539 1.6680
155.273438 94.539 1.6717
155.639648 94.539 1.6753
156.005859 94.539 1.6790
156.372070 94.540 1.6826
156.738281 94.540 1.6862
157.104492 94.540 1.6898
157.470703 94.540 1.6935
157.836914 94.541 1.6971
158.203125 94.541 1.7007
158.569336 94.541 1.7043
158.935547 94.541 1.7079
159.301758 94.541 1.7115
159.667969 94.542 1.7152
160.034180 94.542 1.7188
160.400391 94.542 1.7224
160.766602 94.542 1.7261
161.132812 94.543 1.7297
161.499023 94.543 1.7334
161.865234 94.543 1.7370
162.231445 94.543 1.7407
162.597656 94.544 1.7443
162.963867 94.544 1.7480
163.330078 94.544 1.7516
163.696289 94.544 1.7553
164.062500 94.544 1.7590
164.428711 94.545 1.7626
164.794922 94.545 1.7663
165.161133 94.545 1.7700
165.527344 94.545 1.7736
165.893555 94.546 1.7773
166.259766 94.546 1.7809
166.625977 94.546 1.7845
166.992188 94.546 1.7881
167.358398 94.546 1.7917
167.724609 94.547 1.7953
168.090820 94.547 1.7989
168.457031 94.547 1.8024
168.823242 94.547 1.8060
169.189453 94.548 1.8095
169.555664 94.548 1.8130
169.921875 94.548 1.8166
170.288086 94.548 1.8201
170.654297 94.549 1.8237
171.020508 94.549 1.8272
171.386719 94.549 1.8308
171.752930 94.549 1.8344
172.119141 94.550 1.8380
172.485352 94.550 1.8416
172.851562 94.550 1.8452
173.217773 94.550 1.8488
173.583984 94.551 1.8524
173.950195 94.551 1.8561
174.316406 94.551 1.8597
174.682617 94.551 1.8634
175.048828 94.552 1.8670
175.415039 94.552 1.8706
175.781250 94.552 1.8742
176.147461 94.552 1.8778
176.513672 94.552 1.8813
176.879883 94.553 1.8849
177.246094 94.553 1.8884
177.612305 94.553 1.8920
177.978516 94.553 1.8955
178.344727 94.554 1.8990
178.710938 94.554 1.9025
179.077148 94.554 1.9059
179.443359 94.554 1.9094
179.809570 94.555 1.9129
180.175781 94.555 1.9164
180.541992 94.555 1.9199
180.908203 94.555 1.9234
181.274414 94.556 1.9269
181.640625 94.556 1.9305
182.006836 94.556 1.9340
182.373047 94.556 1.9376
182.739258 94.557 1.9411
183.105469 94.557 1.9447
183.471680 94.557 1.9482
183.837891 94.557 1.9518
184.204102 94.558 1.9554
184.570312 94.558 1.9589
184.936523 94.558 1.9625
185.302734 94.558 1.9660
185.668945 94.559 1.9695
186.035156 94.559 1.9731
186.401367 94.559 1.9766
186.767578 94.559 1.9800
187.133789 94.560 1.9835
187.500000 94.560 1.9870
187.866211 94.560 1.9905
188.232422 94.560 1.9940
188.598633 94.561 1.9975
188.964844 94.561 2.0009
189.331055 94.561 2.0044
189.697266 94.561 2.0078
190.063477 94.562 2.0113
190.429688 94.562 2.0148
190.795898 94.562 2.0182
191.162109 94.562 2.0217
191.528320 94.563 2.0251
191.894531 94.563 2.0286
192.260742 94.563 2.0321
192.626953 94.564 2.0355
192.993164 94.564 2.0390
193.359375 94.564 2.0425
193.725586 94.564 2.0459
194.091797 94.565 2.0494
194.458008 94.565 2.0529
194.824219 94.565 2.0563
195.190430 94.565 2.0598
195.556641 94.566 2.0633
195.922852 94.566 2.0668
196.289062 94.566 2.0702
196.655273 94.566 2.0737
197.021484 94.567 2.0772
197.387695 94.567 2.0806
197.753906 94.567 2.0841
198.120117 94.568 2.0875
198.486328 94.568 2.0909
198.852539 94.568 2.0944
199.218750 94.568 2.0978
199.584961 94.569 2.1012
199.951172 94.569 2.1046
200.317383 94.569 2.1080
200.683594 94.569 2.1114
201.049805 94.570 2.1148
201.416016 94.570 2.1182
201.782227 94.570 2.1216
202.148438 94.570 2.1249
202.514648 94.571 2.1283
202.880859 94.571 2.1317
203.247070 94.571 2.1351
203.613281 94.572 2.1385
203.979492 94.572 2.1419
204.345703 94.572 2.1453
204.711914 94.572 2.1487
205.078125 94.573 2.1521
205.444336 94.573 2.1556
205.810547 94.573 2.1590
206.176758 94.573 2.1624
206.542969 94.574 2.1658
206.909180 94.574 2.1693
207.275391 94.574 2.1727
207.641602 94.575 2.1761
208.007812 94.575 2.1795
208.374023 94.575 2.1828
208.740234 94.575 2.1862
209.106445 94.576 2.1895
209.472656 94.576 2.1929
209.838867 94.576 2.1962
210.205078 94.576 2.1996
210.571289 94.577 2.2029
210.937500 94.577 2.2062
211.303711 94.577 2.2096
211.669922 94.578 2.2129
212.036133 94.578 2.2162
212.402344 94.578 2.2195
212.768555 94.578 2.2229
213.134766 94.579 2.2262
213.500977 94.579 2.2295
213.867188 94.579 2.2329
214.233398 94.580 2.2362
214.599609 94.580 2.2396
214.965820 94.580 2.2429
215.332031 94.580 2.2463
215.698242 94.581 2.2497
216.064453 94.581 2.2530
216.430664 94.581 2.2563
216.796875 94.582 2.2597
217.163086 94.582 2.2630
217.529297 94.582 2.2663
217.895508 94.582 2.2696
218.261719 94.583 2.2730
218.627930 94.583 2.2763
218.994141 94.583 2.2796
219.360352 94.584 2.2829
219.726562 94.584 2.2862
220.092773 94.584 2.2895
220.458984 94.584 2.2928
220.825195 94.585 2.2960
221.191406 94.585 2.2993
221.557617 94.585 2.3026
221.923828 94.586 2.3059
222.290039 94.586 2.3091
222.656250 94.586 2.3124
223.022461 94.586 2.3157
223.388672 94.587 2.3190
223.754883 94.587 2.3222
224.121094 94.587 2.3255
224.487305 94.588 2.3288
224.853516 94.588 2.3320
225.219727 94.588 2.3353
225.585938 94.589 2.3386
225.952148 94.589 2.3419
226.318359 94.589 2.3451
226.684570 94.589 2.3484
227.050781 94.590 2.3516
227.416992 94.590 2.3549
227.783203 94.590 2.3582
228.149414 94.591 2.3614
228.515625 94.591 2.3647
228.881836 94.591 2.3680
229.248047 94.592 2.3712
229.614258 94.592 2.3745
229.980469 94.592 2.3777
230.346680 94.592 2.3810
230.712891 94.593 2.3842
231.079102 94.593 2.3874
231.445312 94.593 2.3906
231.811523 94.594 2.3938
232.177734 94.594 2.3971
232.543945 94.594 2.4003
232.910156 94.594 2.4035
233.276367 94.595 2.4066
233.642578 94.595 2.4098
234.008789 94.595 2.4130
234.375000 94.596 2.4162
234.741211 94.596 2.4194
235.107422 94.596 2.4226
235.473633 94.597 2.4258
235.839844 94.597 2.4290
236.206055 94.597 2.4322
236.572266 94.598 2.4354
236.938477 94.598 2.4386
237.304688 94.598 2.4418
237.670898 94.598 2.4450
238.037109 94.599 2.4482
238.403320 94.599 2.4514
238.769531 94.599 2.4546
239.135742 94.600 2.4578
239.501953 94.600 2.4610
239.868164 94.600 2.4642
240.234375 94.601 2.4674
240.600586 94.601 2.4705
240.966797 94.601 2.4737
241.333008 94.602 2.4769
241.699219 94.602 2.4800
242.065430 94.602 2.4832
242.431641 94.602 2.4863
242.797852 94.603 2.4894
243.164062 94.603 2.4925
243.530273 94.603 2.4957
243.896484 94.604 2.4988
244.262695 94.604 2.5019
244.628906 94.604 2.5051
244.995117 94.605 2.5082
245.361328 94.605 2.5113
245.727539 94.605 2.5145
246.093750 94.606 2.5176
246.459961 94.606 2.5207
246.826172 94.606 2.5239
247.192383 94.606 2.5270
247.558594 94.607 2.5301
247.924805 94.607 2.5333
248.291016 94.607 2.5364
248.657227 94.608 2.5395
249.023438 94.608 2.5427
249.389648 94.608 2.5458
249.755859 94.609 2.5489
250.122070 94.609 2.5520
250.488281 94.609 2.5551
250.854492 94.610 2.5582
251.220703 94.610 2.5613
251.586914 94.610 2.5644
251.953125 94.611 2.5675
252.319336 94.611 2.5705
252.685547 94.611 2.5736
253.051758 94.612 2.5767
253.417969 94.612 2.5798
253.784180 94.612 2.5828
254.150391 94.612 2.5859
254.516602 94.613 2.5890
254.882812 94.613 2.5920
255.249023 94.613 2.5951
255.615234 94.614 2.5982
255.981445 94.614 2.6012
256.347656 94.614 2.6043
256.713867 94.615 2.6073
257.080078 94.615 2.6104
257.446289 94.615 2.6135
257.812500 94.616 2.6165
258.178711 94.616 2.6196
258.544922 94.616 2.6226
258.911133 94.617 2.6257
259.277344 94.617 2.6287
259.643555 94.617 2.6318
260.009766 94.618 2.6348
260.375977 94.618 2.6378
260.742188 94.618 2.6409
261.108398 94.619 2.6439
261.474609 94.619 2.6470
261.840820 94.619 2.6500
262.207031 94.620 2.6530
262.573242 94.620 2.6560
262.939453 94.620 2.6590
263.305664 94.621 2.6621
263.671875 94.621 2.6651
264.038086 94.621 2.6681
264.404297 94.622 2.6711
264.770508 94.622 2.6740
265.136719 94.622 2.6770
265.502930 94.623 2.6800
265.869141 94.623 2.6830
266.235352 94.623 2.6860
266.601562 94.624 2.6890
266.967773 94.624 2.6919
267.333984 94.624 2.6949
267.700195 94.625 2.6979
268.066406 94.625 2.7009
268.432617 94.625 2.7039
268.798828 94.626 2.7069
269.165039 94.626 2.7098
269.531250 94.626 2.7128
269.897461 94.627 2.7158
270.263672 94.627 2.7188
270.629883 94.627 2.7218
270.996094 94.627 2.7248
271.362305 94.628 2.7277
271.728516 94.628 2.7307
272.094727 94.628 2.7336
272.460938 94.629 2.7366
272.827148 94.629 2.7395
273.193359 94.629 2.7425
273.559570 94.630 2.7454
273.925781 94.630 2.7484
274.291992 94.630 2.7513
274.658203 94.631 2.7542
275.024414 94.631 2.7571
275.390625 94.631 2.7600
275.756836 94.632 2.7629
276.123047 94.632 2.7658
276.489258 94.632 2.7688
276.855469 94.633 2.7717
277.221680 94.633 2.7746
277.587891 94.634 2.7775
277.954102 94.634 2.7804
278.320312 94.634 2.7833
278.686523 94.635 2.7862
279.052734 94.635 2.7892
279.418945 94.635 2.7921
279.785156 94.636 2.7950
280.151367 94.636 2.7979
280.517578 94.636 2.8008
280.883789 94.637 2.8037
281.250000 94.637 2.8066
281.616211 94.637 2.8095
281.982422 94.638 2.8124
282.348633 94.638 2.8153
282.714844 94.638 2.8181
283.081055 94.639 2.8210
283.447266 94.639 2.8239
283.813477 94.639 2.8268
284.179688 94.640 2.8296
284.545898 94.640 2.8325
284.912109 94.640 2.8353
285.278320 94.641 2.8382
285.644531 94.641 2.8410
286.010742 94.641 2.8439
286.376953 94.642 2.8467
286.743164 94.642 2.8496
287.109375 94.642 2.8524
287.475586 94.643 2.8553
287.841797 94.643 2.8581
288.208008 94.643 2.8609
288.574219 94.644 2.8638
288.940430 94.644 2.8666
289.306641 94.644 2.8694
289.672852 94.645 2.8723
290.039062 94.645 2.8751
290.405273 94.645 2.8779
290.771484 94.646 2.8808
291.137695 94.646 2.8836
291.503906 94.647 2.8864
291.870117 94.647 2.8892
292.236328 94.647 2.8920
292.602539 94.648 2.8949
292.968750 94.648 2.8977
293.334961 94.648 2.9005
293.701172 94.649 2.9033
294.067383 94.649 2.9061
294.433594 94.649 2.9089
294.799805 94.650 2.9117
295.166016 94.650 2.9145
295.532227 94.650 2.9172
295.898438 94.651 2.9200
296.264648 94.651 2.9228
296.630859 94.651 2.9256
296.997070 94.652 2.9283
297.363281 94.652 2.9311
297.729492 94.652 2.9339
298.095703 94.653 2.9366
298.461914 94.653 2.9394
298.828125 94.653 2.9421
299.194336 94.654 2.9449
299.560547 94.654 2.9477
299.926758 94.655 2.9504
300.292969 94.655 2.9532
300.659180 94.655 2.9559
301.025391 94.656 2.9587
301.391602 94.656 2.9614
301.757812 94.656 2.9642
302.124023 94.657 2.9670
302.490234 94.657 2.9697
302.856445 94.657 2.9724
303.222656 94.658 2.9752
303.588867 94.658 2.9779
303.955078 94.658 2.9807
304.321289 94.659 2.9834
304.687500 94.659 2.9861
305.053711 94.659 2.9888
305.419922 94.660 2.9915
305.786133 94.660 2.9942
306.152344 94.661 2.9969
306.518555 94.661 2.9996
306.884766 94.661 3.0023
307.250977 94.662 3.0050
307.617188 94.662 3.0077
307.983398 94.662 3.0104
308.349609 94.663 3.0131
308.715820 94.663 3.0158
309.082031 94.663 3.0185
309.448242 94.664 3.0212
309.814453 94.664 3.0238
310.180664 94.664 3.0265
310.546875 94.665 3.0292
310.913086 94.665 3.0319
311.279297 94.666 3.0346
311.645508 94.666 3.0373
312.011719 94.666 3.0399
312.377930 94.667 3.0426
312.744141 94.667 3.0453
313.110352 94.667 3.0479
313.476562 94.668 3.0506
313.842773 94.668 3.0533
314.208984 94.668 3.0559
314.575195 94.669 3.0586
314.941406 94.669 3.0612
315.307617 94.670 3.0639
