* Freq(Hz) SPL(dB) Phase(degrees)
20.141602 93.529 -0.1717
20.507812 93.546 -0.0139
20.874023 93.550 0.1790
21.240234 93.548 0.3667
21.606445 93.540 0.5206
21.972656 93.527 0.6298
22.338867 93.510 0.6975
22.705078 93.491 0.7313
23.071289 93.472 0.7359
23.437500 93.456 0.7127
23.803711 93.443 0.6629
24.169922 93.434 0.5917
24.536133 93.429 0.5083
24.902344 93.426 0.4231
25.268555 93.427 0.3444
25.634766 93.432 0.2768
26.000977 93.439 0.2225
26.367188 93.449 0.1832
26.733398 93.459 0.1608
27.099609 93.469 0.1568
27.465820 93.479 0.1712
27.832031 93.487 0.2018
28.198242 93.494 0.2449
28.564453 93.500 0.2964
28.930664 93.503 0.3527
29.296875 93.504 0.4105
29.663086 93.503 0.4666
30.029297 93.500 0.5179
30.395508 93.496 0.5617
30.761719 93.491 0.5959
31.127930 93.485 0.6192
31.494141 93.478 0.6314
31.860352 93.472 0.6327
32.226562 93.466 0.6241
32.592773 93.462 0.6071
32.958984 93.458 0.5839
33.325195 93.456 0.5567
33.691406 93.455 0.5278
34.057617 93.455 0.4995
34.423828 93.457 0.4738
34.790039 93.460 0.4526
35.156250 93.463 0.4372
35.522461 93.467 0.4289
35.888672 93.471 0.4279
36.254883 93.476 0.4340
36.621094 93.480 0.4468
36.987305 93.483 0.4653
37.353516 93.486 0.4884
37.719727 93.488 0.5147
38.085938 93.489 0.5427
38.452148 93.489 0.5709
38.818359 93.488 0.5977
39.184570 93.487 0.6220
39.550781 93.485 0.6428
39.916992 93.483 0.6593
40.283203 93.480 0.6711
40.649414 93.477 0.6782
41.015625 93.475 0.6807
41.381836 93.472 0.6791
41.748047 93.470 0.6742
42.114258 93.469 0.6667
42.480469 93.468 0.6577
42.846680 93.468 0.6481
43.212891 93.468 0.6390
43.579102 93.469 0.6312
43.945312 93.470 0.6255
44.311523 93.472 0.6223
44.677734 93.474 0.6220
45.043945 93.475 0.6248
45.410156 93.477 0.6306
45.776367 93.479 0.6392
46.142578 93.481 0.6502
46.508789 93.482 0.6630
46.875000 93.483 0.6771
47.241211 93.483 0.6918
47.607422 93.483 0.7066
47.973633 93.483 0.7208
48.339844 93.483 0.7340
48.706055 93.482 0.7458
49.072266 93.481 0.7558
49.438477 93.480 0.7641
49.804688 93.479 0.7705
50.170898 93.478 0.7751
50.537109 93.477 0.7782
50.903320 93.477 0.7799
51.269531 93.476 0.7807
51.635742 93.476 0.7809
52.001953 93.476 0.7809
52.368164 93.476 0.7809
52.734375 93.476 0.7813
53.100586 93.476 0.7824
53.466797 93.477 0.7844
53.833008 93.478 0.7873
54.199219 93.478 0.7912
54.565430 93.479 0.7962
54.931641 93.480 0.8021
55.297852 93.480 0.8087
55.664062 93.481 0.8161
56.030273 93.481 0.8239
56.396484 93.482 0.8319
56.762695 93.482 0.8401
57.128906 93.482 0.8483
57.495117 93.482 0.8562
57.861328 93.482 0.8639
58.227539 93.482 0.8711
58.593750 93.482 0.8779
58.959961 93.482 0.8843
59.326172 93.482 0.8902
59.692383 93.481 0.8957
60.058594 93.481 0.9008
60.424805 93.481 0.9057
60.791016 93.481 0.9103
61.157227 93.481 0.9147
61.523438 93.481 0.9190
61.889648 93.481 0.9233
62.255859 93.481 0.9276
62.622070 93.481 0.9318
62.988281 93.481 0.9362
63.354492 93.482 0.9406
63.720703 93.482 0.9451
64.086914 93.482 0.9497
64.453125 93.482 0.9545
64.819336 93.482 0.9594
65.185547 93.483 0.9644
65.551758 93.483 0.9696
65.917969 93.483 0.9749
66.284180 93.483 0.9804
66.650391 93.484 0.9860
67.016602 93.484 0.9918
67.382812 93.484 0.9977
67.749023 93.484 1.0038
68.115234 93.485 1.0100
68.481445 93.485 1.0162
68.847656 93.485 1.0225
69.213867 93.485 1.0289
69.580078 93.485 1.0352
69.946289 93.485 1.0414
70.312500 93.485 1.0475
70.678711 93.485 1.0534
71.044922 93.485 1.0591
71.411133 93.485 1.0646
71.777344 93.485 1.0699
72.143555 93.485 1.0749
72.509766 93.485 1.0797
72.875977 93.485 1.0843
73.242188 93.485 1.0887
73.608398 93.485 1.0931
73.974609 93.485 1.0974
74.340820 93.486 1.1017
74.707031 93.486 1.1060
75.073242 93.486 1.1105
75.439453 93.486 1.1152
75.805664 93.487 1.1201
76.171875 93.487 1.1252
76.538086 93.487 1.1305
76.904297 93.487 1.1361
77.270508 93.488 1.1419
77.636719 93.488 1.1479
78.002930 93.488 1.1541
78.369141 93.488 1.1604
78.735352 93.489 1.1667
79.101562 93.489 1.1730
79.467773 93.489 1.1792
79.833984 93.489 1.1853
80.200195 93.489 1.1912
80.566406 93.489 1.1970
80.932617 93.489 1.2026
81.298828 93.489 1.2079
81.665039 93.489 1.2131
82.031250 93.489 1.2180
82.397461 93.489 1.2228
82.763672 93.489 1.2275
83.129883 93.489 1.2321
83.496094 93.490 1.2367
83.862305 93.490 1.2413
84.228516 93.490 1.2460
84.594727 93.490 1.2507
84.960938 93.490 1.2555
85.327148 93.491 1.2605
85.693359 93.491 1.2656
86.059570 93.491 1.2709
86.425781 93.491 1.2763
86.791992 93.492 1.2818
87.158203 93.492 1.2875
87.524414 93.492 1.2932
87.890625 93.492 1.2989
88.256836 93.492 1.3047
88.623047 93.493 1.3104
88.989258 93.493 1.3162
89.355469 93.493 1.3219
89.721680 93.493 1.3275
90.087891 93.493 1.3330
90.454102 93.493 1.3385
90.820312 93.493 1.3439
91.186523 93.493 1.3492
91.552734 93.494 1.3545
91.918945 93.494 1.3596
92.285156 93.494 1.3648
92.651367 93.494 1.3699
93.017578 93.494 1.3750
93.383789 93.494 1.3800
93.750000 93.494 1.3851
94.116211 93.495 1.3901
94.482422 93.495 1.3952
94.848633 93.495 1.4003
95.214844 93.495 1.4054
95.581055 93.495 1.4105
95.947266 93.496 1.4156
96.313477 93.496 1.4208
96.679688 93.496 1.4260
97.045898 93.496 1.4312
97.412109 93.496 1.4365
97.778320 93.497 1.4417
98.144531 93.497 1.4470
98.510742 93.497 1.4524
98.876953 93.497 1.4578
99.243164 93.497 1.4632
99.609375 93.498 1.4686
99.975586 93.498 1.4741
100.341797 93.498 1.4796
100.708008 93.498 1.4850
101.074219 93.498 1.4905
101.440430 93.499 1.4960
101.806641 93.499 1.5014
102.172852 93.499 1.5068
102.539062 93.499 1.5122
102.905273 93.499 1.5175
103.271484 93.499 1.5227
103.637695 93.500 1.5279
104.003906 93.500 1.5330
104.370117 93.500 1.5381
104.736328 93.500 1.5431
105.102539 93.500 1.5481
105.468750 93.500 1.5531
105.834961 93.501 1.5580
106.201172 93.501 1.5630
106.567383 93.501 1.5679
106.933594 93.501 1.5730
107.299805 93.502 1.5780
107.666016 93.502 1.5831
108.032227 93.502 1.5883
108.398438 93.502 1.5936
108.764648 93.502 1.5989
109.130859 93.503 1.6043
109.497070 93.503 1.6097
109.863281 93.503 1.6152
110.229492 93.503 1.6207
110.595703 93.504 1.6261
110.961914 93.504 1.6316
111.328125 93.504 1.6371
111.694336 93.504 1.6425
112.060547 93.504 1.6479
112.426758 93.505 1.6532
112.792969 93.505 1.6585
113.159180 93.505 1.6636
113.525391 93.505 1.6688
113.891602 93.505 1.6738
114.257812 93.505 1.6788
114.624023 93.506 1.6838
114.990234 93.506 1.6888
115.356445 93.506 1.6937
115.722656 93.506 1.6987
116.088867 93.506 1.7036
116.455078 93.507 1.7086
116.821289 93.507 1.7137
117.187500 93.507 1.7188
117.553711 93.507 1.7239
117.919922 93.508 1.7291
118.286133 93.508 1.7343
118.652344 93.508 1.7396
119.018555 93.508 1.7449
119.384766 93.509 1.7502
119.750977 93.509 1.7555
120.117188 93.509 1.7608
120.483398 93.509 1.7662
120.849609 93.510 1.7714
121.215820 93.510 1.7767
121.582031 93.510 1.7820
121.948242 93.510 1.7872
122.314453 93.510 1.7924
122.680664 93.511 1.7976
123.046875 93.511 1.8028
123.413086 93.511 1.8079
123.779297 93.511 1.8130
124.145508 93.511 1.8181
124.511719 93.512 1.8232
124.877930 93.512 1.8282
125.244141 93.512 1.8333
125.610352 93.512 1.8383
125.976562 93.513 1.8434
126.342773 93.513 1.8484
126.708984 93.513 1.8535
127.075195 93.513 1.8586
127.441406 93.514 1.8636
127.807617 93.514 1.8687
128.173828 93.514 1.8738
128.540039 93.514 1.8789
128.906250 93.514 1.8840
129.272461 93.515 1.8891
129.638672 93.515 1.8943
130.004883 93.515 1.8994
130.371094 93.515 1.9045
130.737305 93.516 1.9097
131.103516 93.516 1.9148
131.469727 93.516 1.9200
131.835938 93.516 1.9252
132.202148 93.517 1.9304
132.568359 93.517 1.9356
132.934570 93.517 1.9408
133.300781 93.517 1.9459
133.666992 93.518 1.9511
134.033203 93.518 1.9563
134.399414 93.518 1.9614
134.765625 93.518 1.9665
135.131836 93.519 1.9716
135.498047 93.519 1.9767
135.864258 93.519 1.9817
136.230469 93.519 1.9867
136.596680 93.520 1.9917
136.962891 93.520 1.9967
137.329102 93.520 2.0016
137.695312 93.520 2.0066
138.061523 93.521 2.0115
138.427734 93.521 2.0165
138.793945 93.521 2.0215
139.160156 93.521 2.0265
139.526367 93.522 2.0315
139.892578 93.522 2.0365
140.258789 93.522 2.0416
140.625000 93.522 2.0467
140.991211 93.523 2.0518
141.357422 93.523 2.0570
141.723633 93.523 2.0621
142.089844 93.524 2.0673
142.456055 93.524 2.0725
142.822266 93.524 2.0776
143.188477 93.524 2.0828
143.554688 93.525 2.0879
143.920898 93.525 2.0930
144.287109 93.525 2.0981
144.653320 93.525 2.1032
145.019531 93.526 2.1082
145.385742 93.526 2.1132
145.751953 93.526 2.1181
146.118164 93.526 2.1231
146.484375 93.527 2.1280
146.850586 93.527 2.1329
147.216797 93.527 2.1378
147.583008 93.527 2.1427
147.949219 93.528 2.1477
148.315430 93.528 2.1526
148.681641 93.528 2.1575
149.047852 93.528 2.1625
149.414062 93.529 2.1675
149.780273 93.529 2.1725
150.146484 93.529 2.1775
150.512695 93.530 2.1826
150.878906 93.530 2.1876
151.245117 93.530 2.1927
151.611328 93.530 2.1977
151.977539 93.531 2.2028
152.343750 93.531 2.2079
152.709961 93.531 2.2129
153.076172 93.532 2.2180
153.442383 93.532 2.2230
153.808594 93.532 2.2280
154.174805 93.532 2.2330
154.541016 93.533 2.2380
154.907227 93.533 2.2430
155.273438 93.533 2.2479
155.639648 93.533 2.2529
156.005859 93.534 2.2578
156.372070 93.534 2.2627
156.738281 93.534 2.2676
157.104492 93.535 2.2726
157.470703 93.535 2.2775
157.836914 93.535 2.2824
158.203125 93.535 2.2873
158.569336 93.536 2.2922
158.935547 93.536 2.2971
159.301758 93.536 2.3021
159.667969 93.537 2.3070
160.034180 93.537 2.3119
160.400391 93.537 2.3168
160.766602 93.537 2.3218
161.132812 93.538 2.3267
161.499023 93.538 2.3316
161.865234 93.538 2.3365
162.231445 93.539 2.3415
162.597656 93.539 2.3464
162.963867 93.539 2.3514
163.330078 93.539 2.3563
163.696289 93.540 2.3613
164.062500 93.540 2.3663
164.428711 93.540 2.3712
164.794922 93.541 2.3762
165.161133 93.541 2.3811
165.527344 93.541 2.3861
165.893555 93.542 2.3910
166.259766 93.542 2.3959
166.625977 93.542 2.4008
166.992188 93.542 2.4057
167.358398 93.543 2.4106
167.724609 93.543 2.4155
168.090820 93.543 2.4203
168.457031 93.544 2.4251
168.823242 93.544 2.4300
169.189453 93.544 2.4348
169.555664 93.544 2.4396
169.921875 93.545 2.4444
170.288086 93.545 2.4493
170.654297 93.545 2.4541
171.020508 93.546 2.4589
171.386719 93.546 2.4638
171.752930 93.546 2.4686
172.119141 93.547 2.4735
172.485352 93.547 2.4784
172.851562 93.547 2.4833
173.217773 93.548 2.4882
173.583984 93.548 2.4931
173.950195 93.548 2.4980
174.316406 93.549 2.5029
174.682617 93.549 2.5078
175.048828 93.549 2.5127
175.415039 93.549 2.5176
175.781250 93.550 2.5225
176.147461 93.550 2.5273
176.513672 93.550 2.5322
176.879883 93.551 2.5370
177.246094 93.551 2.5418
177.612305 93.551 2.5466
177.978516 93.552 2.5514
178.344727 93.552 2.5561
178.710938 93.552 2.5609
179.077148 93.552 2.5657
179.443359 93.553 2.5704
179.809570 93.553 2.5752
180.175781 93.553 2.5799
180.541992 93.554 2.5847
180.908203 93.554 2.5895
181.274414 93.554 2.5943
181.640625 93.555 2.5991
182.006836 93.555 2.6039
182.373047 93.555 2.6087
182.739258 93.556 2.6135
183.105469 93.556 2.6183
183.471680 93.556 2.6232
183.837891 93.557 2.6280
184.204102 93.557 2.6328
184.570312 93.557 2.6376
184.936523 93.558 2.6424
185.302734 93.558 2.6472
185.668945 93.558 2.6520
186.035156 93.559 2.6568
186.401367 93.559 2.6616
186.767578 93.559 2.6663
187.133789 93.560 2.6711
187.500000 93.560 2.6758
187.866211 93.560 2.6806
188.232422 93.561 2.6853
188.598633 93.561 2.6900
188.964844 93.561 2.6947
189.331055 93.562 2.6995
189.697266 93.562 2.7042
190.063477 93.562 2.7089
190.429688 93.563 2.7136
190.795898 93.563 2.7183
191.162109 93.563 2.7230
191.528320 93.564 2.7278
191.894531 93.564 2.7325
192.260742 93.564 2.7372
192.626953 93.565 2.7419
192.993164 93.565 2.7466
193.359375 93.565 2.7513
193.725586 93.566 2.7561
194.091797 93.566 2.7608
194.458008 93.566 2.7655
194.824219 93.567 2.7702
195.190430 93.567 2.7749
195.556641 93.567 2.7796
195.922852 93.568 2.7844
196.289062 93.568 2.7891
196.655273 93.568 2.7938
197.021484 93.569 2.7985
197.387695 93.569 2.8032
197.753906 93.569 2.8079
198.120117 93.570 2.8126
198.486328 93.570 2.8173
198.852539 93.570 2.8220
199.218750 93.571 2.8266
199.584961 93.571 2.8313
199.951172 93.571 2.8359
200.317383 93.572 2.8406
200.683594 93.572 2.8452
201.049805 93.572 2.8498
201.416016 93.573 2.8544
201.782227 93.573 2.8591
202.148438 93.573 2.8637
202.514648 93.574 2.8683
202.880859 93.574 2.8729
203.247070 93.575 2.8775
203.613281 93.575 2.8822
203.979492 93.575 2.8868
204.345703 93.576 2.8915
204.711914 93.576 2.8961
205.078125 93.576 2.9008
205.444336 93.577 2.9054
205.810547 93.577 2.9101
206.176758 93.577 2.9147
206.542969 93.578 2.9194
206.909180 93.578 2.9240
207.275391 93.578 2.9287
207.641602 93.579 2.9333
208.007812 93.579 2.9379
208.374023 93.579 2.9426
208.740234 93.580 2.9472
209.106445 93.580 2.9517
209.472656 93.581 2.9563
209.838867 93.581 2.9609
210.205078 93.581 2.9654
210.571289 93.582 2.9700
210.937500 93.582 2.9745
211.303711 93.582 2.9791
211.669922 93.583 2.9836
212.036133 93.583 2.9882
212.402344 93.583 2.9927
212.768555 93.584 2.9973
213.134766 93.584 3.0018
213.500977 93.585 3.0064
213.867188 93.585 3.0110
214.233398 93.585 3.0155
214.599609 93.586 3.0201
214.965820 93.586 3.0247
215.332031 93.586 3.0293
215.698242 93.587 3.0338
216.064453 93.587 3.0384
216.430664 93.587 3.0430
216.796875 93.588 3.0475
217.163086 93.588 3.0521
217.529297 93.589 3.0566
217.895508 93.589 3.0611
218.261719 93.589 3.0657
218.627930 93.590 3.0702
218.994141 93.590 3.0747
219.360352 93.590 3.0792
219.726562 93.591 3.0837
220.092773 93.591 3.0882
220.458984 93.592 3.0927
220.825195 93.592 3.0972
221.191406 93.592 3.1017
221.557617 93.593 3.1062
221.923828 93.593 3.1107
222.290039 93.593 3.1152
222.656250 93.594 3.1197
223.022461 93.594 3.1241
223.388672 93.595 3.1286
223.754883 93.595 3.1331
224.121094 93.595 3.1376
224.487305 93.596 3.1420
224.853516 93.596 3.1465
225.219727 93.596 3.1510
225.585938 93.597 3.1555
225.952148 93.597 3.1599
226.318359 93.598 3.1644
226.684570 93.598 3.1689
227.050781 93.598 3.1733
227.416992 93.599 3.1778
227.783203 93.599 3.1823
228.149414 93.600 3.1867
228.515625 93.600 3.1912
228.881836 93.600 3.1956
229.248047 93.601 3.2001
229.614258 93.601 3.2045
229.980469 93.601 3.2090
230.346680 93.602 3.2134
230.712891 93.602 3.2179
231.079102 93.603 3.2223
231.445312 93.603 3.2267
231.811523 93.603 3.2311
232.177734 93.604 3.2355
232.543945 93.604 3.2399
232.910156 93.604 3.2443
233.276367 93.605 3.2487
233.642578 93.605 3.2530
234.008789 93.606 3.2574
234.375000 93.606 3.2618
234.741211 93.606 3.2662
235.107422 93.607 3.2706
235.473633 93.607 3.2750
235.839844 93.608 3.2793
236.206055 93.608 3.2837
236.572266 93.608 3.2881
236.938477 93.609 3.2925
237.304688 93.609 3.2969
237.670898 93.610 3.3013
238.037109 93.610 3.3057
238.403320 93.610 3.3101
238.769531 93.611 3.3144
239.135742 93.611 3.3188
239.501953 93.612 3.3232
239.868164 93.612 3.3276
240.234375 93.612 3.3319
240.600586 93.613 3.3363
240.966797 93.613 3.3406
241.333008 93.614 3.3449
241.699219 93.614 3.3493
242.065430 93.614 3.3536
242.431641 93.615 3.3579
242.797852 93.615 3.3622
243.164062 93.616 3.3665
243.530273 93.616 3.3708
243.896484 93.616 3.3751
244.262695 93.617 3.3794
244.628906 93.617 3.3837
244.995117 93.618 3.3880
245.361328 93.618 3.3923
245.727539 93.618 3.3967
246.093750 93.619 3.4010
246.459961 93.619 3.4053
246.826172 93.620 3.4096
247.192383 93.620 3.4139
247.558594 93.620 3.4182
247.924805 93.621 3.4225
248.291016 93.621 3.4268
248.657227 93.622 3.4311
249.023438 93.622 3.4354
249.389648 93.622 3.4396
249.755859 93.623 3.4439
250.122070 93.623 3.4482
250.488281 93.624 3.4525
250.854492 93.624 3.4567
251.220703 93.624 3.4610
251.586914 93.625 3.4652
251.953125 93.625 3.4695
252.319336 93.626 3.4737
252.685547 93.626 3.4779
253.051758 93.627 3.4822
253.417969 93.627 3.4864
253.784180 93.627 3.4907
254.150391 93.628 3.4949
254.516602 93.628 3.4991
254.882812 93.629 3.5033
255.249023 93.629 3.5075
255.615234 93.629 3.5117
255.981445 93.630 3.5160
256.347656 93.630 3.5202
256.713867 93.631 3.5244
257.080078 93.631 3.5286
257.446289 93.632 3.5328
257.812500 93.632 3.5370
258.178711 93.632 3.5412
258.544922 93.633 3.5454
258.911133 93.633 3.5496
259.277344 93.634 3.5538
259.643555 93.634 3.5580
260.009766 93.634 3.5622
260.375977 93.635 3.5664
260.742188 93.635 3.5706
261.108398 93.636 3.5748
261.474609 93.636 3.5790
261.840820 93.637 3.5831
262.207031 93.637 3.5873
262.573242 93.637 3.5915
262.939453 93.638 3.5956
263.305664 93.638 3.5998
263.671875 93.639 3.6039
264.038086 93.639 3.6081
264.404297 93.640 3.6122
264.770508 93.640 3.6163
265.136719 93.640 3.6204
265.502930 93.641 3.6246
265.869141 93.641 3.6287
266.235352 93.642 3.6328
266.601562 93.642 3.6369
266.967773 93.642 3.6410
267.333984 93.643 3.6452
267.700195 93.643 3.6493
268.066406 93.644 3.6534
268.432617 93.644 3.6575
268.798828 93.645 3.6616
269.165039 93.645 3.6657
269.531250 93.646 3.6699
269.897461 93.646 3.6740
270.263672 93.646 3.6781
270.629883 93.647 3.6822
270.996094 93.647 3.6863
271.362305 93.648 3.6904
271.728516 93.648 3.6945
272.094727 93.649 3.6986
272.460938 93.649 3.7026
272.827148 93.649 3.7067
273.193359 93.650 3.7108
273.559570 93.650 3.7148
273.925781 93.651 3.7189
274.291992 93.651 3.7229
274.658203 93.652 3.7270
275.024414 93.652 3.7310
275.390625 93.652 3.7351
275.756836 93.653 3.7391
276.123047 93.653 3.7431
276.489258 93.654 3.7471
276.855469 93.654 3.7512
277.221680 93.655 3.7552
277.587891 93.655 3.7593
277.954102 93.655 3.7633
278.320312 93.656 3.7673
278.686523 93.656 3.7714
279.052734 93.657 3.7754
279.418945 93.657 3.7794
279.785156 93.658 3.7834
280.151367 93.658 3.7874
280.517578 93.659 3.7915
280.883789 93.659 3.7955
281.250000 93.659 3.7995
281.616211 93.660 3.8035
281.982422 93.660 3.8075
282.348633 93.661 3.8115
282.714844 93.661 3.8155
283.081055 93.662 3.8194
283.447266 93.662 3.8234
283.813477 93.663 3.8274
284.179688 93.663 3.8314
284.545898 93.663 3.8353
284.912109 93.664 3.8393
285.278320 93.664 3.8432
285.644531 93.665 3.8472
286.010742 93.665 3.8511
286.376953 93.666 3.8551
286.743164 93.666 3.8590
287.109375 93.667 3.8630
287.475586 93.667 3.8669
287.841797 93.667 3.8709
288.208008 93.668 3.8748
288.574219 93.668 3.8787
288.940430 93.669 3.8827
289.306641 93.669 3.8866
289.672852 93.670 3.8905
290.039062 93.670 3.8945
290.405273 93.671 3.8984
290.771484 93.671 3.9023
291.137695 93.671 3.9062
291.503906 93.672 3.9101
291.870117 93.672 3.9140
292.236328 93.673 3.9179
292.602539 93.673 3.9218
292.968750 93.674 3.9257
293.334961 93.674 3.9296
293.701172 93.675 3.9335
294.067383 93.675 3.9374
294.433594 93.676 3.9413
294.799805 93.676 3.9452
295.166016 93.676 3.9491
295.532227 93.677 3.9529
295.898438 93.677 3.9568
296.264648 93.678 3.9607
296.630859 93.678 3.9645
296.997070 93.679 3.9684
297.363281 93.679 3.9722
297.729492 93.680 3.9761
298.095703 93.680 3.9799
298.461914 93.681 3.9837
298.828125 93.681 3.9876
299.194336 93.681 3.9914
299.560547 93.682 3.9952
299.926758 93.682 3.9991
300.292969 93.683 4.0029
300.659180 93.683 4.0067
301.025391 93.684 4.0106
301.391602 93.684 4.0144
301.757812 93.685 4.0182
302.124023 93.685 4.0221
302.490234 93.686 4.0259
302.856445 93.686 4.0297
303.222656 93.687 4.0335
303.588867 93.687 4.0373
303.955078 93.687 4.0411
304.321289 93.688 4.0449
304.687500 93.688 4.0487
305.053711 93.689 4.0525
305.419922 93.689 4.0563
305.786133 93.690 4.0600
306.152344 93.690 4.0638
306.518555 93.691 4.0676
306.884766 93.691 4.0713
307.250977 93.692 4.0751
307.617188 93.692 4.0788
307.983398 93.693 4.0826
308.349609 93.693 4.0863
308.715820 93.693 4.0901
309.082031 93.694 4.0938
309.448242 93.694 4.0976
309.814453 93.695 4.1013
310.180664 93.695 4.1051
310.546875 93.696 4.1088
310.913086 93.696 4.1125
311.279297 93.697 4.1163
311.645508 93.697 4.1200
312.011719 93.698 4.1237
312.377930 93.698 4.1275
312.744141 93.699 4.1312
313.110352 93.699 4.1349
313.476562 93.700 4.1386
313.842773 93.700 4.1424
314.208984 93.701 4.1461
314.575195 93.701 4.1498
314.941406 93.701 4.1535
315.307617 93.702 4.1571
