* Freq(Hz) SPL(dB) Phase(degrees)
20.141602 92.409 -0.1029
20.507812 92.425 0.0562
20.874023 92.430 0.2503
21.240234 92.427 0.4394
21.606445 92.419 0.5945
21.972656 92.406 0.7051
22.338867 92.389 0.7741
22.705078 92.370 0.8091
23.071289 92.352 0.8150
23.437500 92.336 0.7931
23.803711 92.323 0.7446
24.169922 92.314 0.6747
24.536133 92.308 0.5925
24.902344 92.306 0.5086
25.268555 92.307 0.4311
25.634766 92.312 0.3648
26.000977 92.319 0.3117
26.367188 92.328 0.2736
26.733398 92.338 0.2523
27.099609 92.348 0.2496
27.465820 92.358 0.2652
27.832031 92.367 0.2971
28.198242 92.374 0.3414
28.564453 92.379 0.3941
28.930664 92.383 0.4517
29.296875 92.384 0.5107
29.663086 92.383 0.5680
30.029297 92.380 0.6207
30.395508 92.376 0.6657
30.761719 92.370 0.7012
31.127930 92.364 0.7258
31.494141 92.358 0.7392
31.860352 92.352 0.7418
32.226562 92.346 0.7345
32.592773 92.341 0.7188
32.958984 92.338 0.6969
33.325195 92.336 0.6709
33.691406 92.335 0.6433
34.057617 92.335 0.6162
34.423828 92.337 0.5918
34.790039 92.339 0.5717
35.156250 92.343 0.5576
35.522461 92.347 0.5505
35.888672 92.351 0.5507
36.254883 92.356 0.5581
36.621094 92.360 0.5721
36.987305 92.363 0.5918
37.353516 92.366 0.6162
37.719727 92.368 0.6437
38.085938 92.369 0.6729
38.452148 92.369 0.7023
38.818359 92.368 0.7305
39.184570 92.367 0.7560
39.550781 92.365 0.7781
39.916992 92.363 0.7959
40.283203 92.360 0.8090
40.649414 92.357 0.8173
41.015625 92.355 0.8210
41.381836 92.352 0.8207
41.748047 92.350 0.8171
42.114258 92.349 0.8109
42.480469 92.348 0.8031
42.846680 92.348 0.7948
43.212891 92.348 0.7869
43.579102 92.349 0.7804
43.945312 92.350 0.7758
44.311523 92.352 0.7739
44.677734 92.354 0.7749
45.043945 92.356 0.7789
45.410156 92.358 0.7859
45.776367 92.359 0.7957
46.142578 92.361 0.8079
46.508789 92.362 0.8220
46.875000 92.363 0.8373
47.241211 92.364 0.8533
47.607422 92.364 0.8693
47.973633 92.364 0.8848
48.339844 92.363 0.8992
48.706055 92.362 0.9122
49.072266 92.362 0.9236
49.438477 92.361 0.9331
49.804688 92.360 0.9408
50.170898 92.359 0.9467
50.537109 92.358 0.9510
50.903320 92.357 0.9540
51.269531 92.357 0.9560
51.635742 92.356 0.9574
52.001953 92.356 0.9586
52.368164 92.356 0.9599
52.734375 92.357 0.9616
53.100586 92.357 0.9639
53.466797 92.358 0.9671
53.833008 92.359 0.9713
54.199219 92.359 0.9764
54.565430 92.360 0.9826
54.931641 92.361 0.9897
55.297852 92.361 0.9976
55.664062 92.362 1.0062
56.030273 92.362 1.0152
56.396484 92.363 1.0245
56.762695 92.363 1.0340
57.128906 92.363 1.0434
57.495117 92.363 1.0525
57.861328 92.363 1.0614
58.227539 92.363 1.0699
58.593750 92.363 1.0780
58.959961 92.363 1.0856
59.326172 92.363 1.0927
59.692383 92.363 1.0995
60.058594 92.362 1.1059
60.424805 92.362 1.1120
60.791016 92.362 1.1178
61.157227 92.362 1.1235
61.523438 92.362 1.1290
61.889648 92.362 1.1345
62.255859 92.362 1.1400
62.622070 92.363 1.1456
62.988281 92.363 1.1512
63.354492 92.363 1.1568
63.720703 92.363 1.1626
64.086914 92.363 1.1684
64.453125 92.364 1.1744
64.819336 92.364 1.1805
65.185547 92.364 1.1868
65.551758 92.364 1.1932
65.917969 92.365 1.1997
66.284180 92.365 1.2064
66.650391 92.365 1.2133
67.016602 92.366 1.2203
67.382812 92.366 1.2275
67.749023 92.366 1.2348
68.115234 92.366 1.2422
68.481445 92.367 1.2497
68.847656 92.367 1.2573
69.213867 92.367 1.2648
69.580078 92.367 1.2724
69.946289 92.367 1.2798
70.312500 92.367 1.2871
70.678711 92.367 1.2943
71.044922 92.367 1.3012
71.411133 92.367 1.3080
71.777344 92.367 1.3145
72.143555 92.367 1.3207
72.509766 92.367 1.3268
72.875977 92.367 1.3326
73.242188 92.367 1.3383
73.608398 92.367 1.3439
73.974609 92.368 1.3494
74.340820 92.368 1.3549
74.707031 92.368 1.3605
75.073242 92.368 1.3663
75.439453 92.369 1.3721
75.805664 92.369 1.3782
76.171875 92.369 1.3846
76.538086 92.370 1.3912
76.904297 92.370 1.3980
77.270508 92.370 1.4050
77.636719 92.371 1.4122
78.002930 92.371 1.4196
78.369141 92.371 1.4271
78.735352 92.371 1.4346
79.101562 92.371 1.4422
79.467773 92.372 1.4496
79.833984 92.372 1.4570
80.200195 92.372 1.4641
80.566406 92.372 1.4711
80.932617 92.372 1.4779
81.298828 92.372 1.4845
81.665039 92.372 1.4909
82.031250 92.372 1.4971
82.397461 92.372 1.5031
82.763672 92.372 1.5090
83.129883 92.372 1.5149
83.496094 92.373 1.5207
83.862305 92.373 1.5265
84.228516 92.373 1.5324
84.594727 92.373 1.5383
84.960938 92.373 1.5444
85.327148 92.374 1.5506
85.693359 92.374 1.5569
86.059570 92.374 1.5634
86.425781 92.375 1.5701
86.791992 92.375 1.5768
87.158203 92.375 1.5836
87.524414 92.375 1.5906
87.890625 92.376 1.5975
88.256836 92.376 1.6046
88.623047 92.376 1.6115
88.989258 92.376 1.6185
89.355469 92.376 1.6254
89.721680 92.377 1.6322
90.087891 92.377 1.6390
90.454102 92.377 1.6457
90.820312 92.377 1.6523
91.186523 92.377 1.6588
91.552734 92.377 1.6653
91.918945 92.378 1.6717
92.285156 92.378 1.6781
92.651367 92.378 1.6844
93.017578 92.378 1.6907
93.383789 92.378 1.6970
93.750000 92.378 1.7032
94.116211 92.379 1.7095
94.482422 92.379 1.7158
94.848633 92.379 1.7221
95.214844 92.379 1.7284
95.581055 92.380 1.7347
95.947266 92.380 1.7411
96.313477 92.380 1.7475
96.679688 92.380 1.7539
97.045898 92.381 1.7603
97.412109 92.381 1.7668
97.778320 92.381 1.7733
98.144531 92.381 1.7798
98.510742 92.382 1.7864
98.876953 92.382 1.7929
99.243164 92.382 1.7996
99.609375 92.382 1.8062
99.975586 92.383 1.8129
100.341797 92.383 1.8196
100.708008 92.383 1.8263
101.074219 92.383 1.8330
101.440430 92.383 1.8397
101.806641 92.384 1.8463
102.172852 92.384 1.8529
102.539062 92.384 1.8595
102.905273 92.384 1.8660
103.271484 92.384 1.8725
103.637695 92.385 1.8789
104.003906 92.385 1.8852
104.370117 92.385 1.8915
104.736328 92.385 1.8977
105.102539 92.385 1.9039
105.468750 92.386 1.9100
105.834961 92.386 1.9162
106.201172 92.386 1.9224
106.567383 92.386 1.9285
106.933594 92.387 1.9348
107.299805 92.387 1.9410
107.666016 92.387 1.9474
108.032227 92.388 1.9538
108.398438 92.388 1.9602
108.764648 92.388 1.9667
109.130859 92.388 1.9733
109.497070 92.389 1.9799
109.863281 92.389 1.9866
110.229492 92.389 1.9933
110.595703 92.390 2.0000
110.961914 92.390 2.0067
111.328125 92.390 2.0134
111.694336 92.390 2.0200
112.060547 92.390 2.0266
112.426758 92.391 2.0331
112.792969 92.391 2.0395
113.159180 92.391 2.0459
113.525391 92.391 2.0522
113.891602 92.392 2.0585
114.257812 92.392 2.0647
114.624023 92.392 2.0709
114.990234 92.392 2.0770
115.356445 92.392 2.0832
115.722656 92.393 2.0894
116.088867 92.393 2.0955
116.455078 92.393 2.1017
116.821289 92.394 2.1080
117.187500 92.394 2.1142
117.553711 92.394 2.1206
117.919922 92.394 2.1269
118.286133 92.395 2.1334
118.652344 92.395 2.1398
119.018555 92.395 2.1463
119.384766 92.396 2.1528
119.750977 92.396 2.1593
120.117188 92.396 2.1659
120.483398 92.396 2.1724
120.849609 92.397 2.1789
121.215820 92.397 2.1853
121.582031 92.397 2.1918
121.948242 92.397 2.1983
122.314453 92.398 2.2046
122.680664 92.398 2.2110
123.046875 92.398 2.2174
123.413086 92.399 2.2237
123.779297 92.399 2.2300
124.145508 92.399 2.2362
124.511719 92.399 2.2425
124.877930 92.400 2.2487
125.244141 92.400 2.2550
125.610352 92.400 2.2612
125.976562 92.400 2.2675
126.342773 92.401 2.2737
126.708984 92.401 2.2800
127.075195 92.401 2.2862
127.441406 92.402 2.2925
127.807617 92.402 2.2988
128.173828 92.402 2.3050
128.540039 92.402 2.3113
128.906250 92.403 2.3176
129.272461 92.403 2.3239
129.638672 92.403 2.3302
130.004883 92.404 2.3365
130.371094 92.404 2.3428
130.737305 92.404 2.3492
131.103516 92.405 2.3555
131.469727 92.405 2.3619
131.835938 92.405 2.3683
132.202148 92.405 2.3746
132.568359 92.406 2.3810
132.934570 92.406 2.3874
133.300781 92.406 2.3937
133.666992 92.407 2.4001
134.033203 92.407 2.4064
134.399414 92.407 2.4127
134.765625 92.407 2.4190
135.131836 92.408 2.4253
135.498047 92.408 2.4315
135.864258 92.408 2.4377
136.230469 92.409 2.4439
136.596680 92.409 2.4501
136.962891 92.409 2.4562
137.329102 92.409 2.4624
137.695312 92.410 2.4685
138.061523 92.410 2.4746
138.427734 92.410 2.4808
138.793945 92.411 2.4869
139.160156 92.411 2.4931
139.526367 92.411 2.4993
139.892578 92.412 2.5055
140.258789 92.412 2.5118
140.625000 92.412 2.5180
140.991211 92.413 2.5243
141.357422 92.413 2.5306
141.723633 92.413 2.5370
142.089844 92.414 2.5433
142.456055 92.414 2.5497
142.822266 92.414 2.5560
143.188477 92.415 2.5623
143.554688 92.415 2.5686
143.920898 92.415 2.5749
144.287109 92.415 2.5811
144.653320 92.416 2.5873
145.019531 92.416 2.5935
145.385742 92.416 2.5997
145.751953 92.417 2.6058
146.118164 92.417 2.6119
146.484375 92.417 2.6180
146.850586 92.418 2.6241
147.216797 92.418 2.6302
147.583008 92.418 2.6363
147.949219 92.419 2.6424
148.315430 92.419 2.6485
148.681641 92.419 2.6546
149.047852 92.420 2.6607
149.414062 92.420 2.6668
149.780273 92.420 2.6730
150.146484 92.421 2.6792
150.512695 92.421 2.6854
150.878906 92.421 2.6916
151.245117 92.422 2.6978
151.611328 92.422 2.7040
151.977539 92.422 2.7103
152.343750 92.423 2.7165
152.709961 92.423 2.7227
153.076172 92.423 2.7289
153.442383 92.424 2.7351
153.808594 92.424 2.7413
154.174805 92.424 2.7474
154.541016 92.425 2.7536
154.907227 92.425 2.7597
155.273438 92.425 2.7658
155.639648 92.426 2.7719
156.005859 92.426 2.7780
156.372070 92.426 2.7841
156.738281 92.427 2.7902
157.104492 92.427 2.7962
157.470703 92.427 2.8023
157.836914 92.428 2.8084
158.203125 92.428 2.8144
158.569336 92.428 2.8205
158.935547 92.429 2.8266
159.301758 92.429 2.8326
159.667969 92.429 2.8387
160.034180 92.430 2.8448
160.400391 92.430 2.8509
160.766602 92.431 2.8569
161.132812 92.431 2.8630
161.499023 92.431 2.8691
161.865234 92.432 2.8752
162.231445 92.432 2.8813
162.597656 92.432 2.8874
162.963867 92.433 2.8935
163.330078 92.433 2.8995
163.696289 92.433 2.9057
164.062500 92.434 2.9118
164.428711 92.434 2.9178
164.794922 92.434 2.9239
165.161133 92.435 2.9300
165.527344 92.435 2.9361
165.893555 92.435 2.9422
166.259766 92.436 2.9483
166.625977 92.436 2.9543
166.992188 92.437 2.9604
167.358398 92.437 2.9664
167.724609 92.437 2.9724
168.090820 92.438 2.9784
168.457031 92.438 2.9843
168.823242 92.438 2.9903
169.189453 92.439 2.9963
169.555664 92.439 3.0022
169.921875 92.439 3.0082
170.288086 92.440 3.0141
170.654297 92.440 3.0201
171.020508 92.441 3.0261
171.386719 92.441 3.0320
171.752930 92.441 3.0380
172.119141 92.442 3.0440
172.485352 92.442 3.0501
172.851562 92.442 3.0561
173.217773 92.443 3.0621
173.583984 92.443 3.0682
173.950195 92.444 3.0742
174.316406 92.444 3.0802
174.682617 92.444 3.0863
175.048828 92.445 3.0923
175.415039 92.445 3.0983
175.781250 92.445 3.1043
176.147461 92.446 3.1103
176.513672 92.446 3.1163
176.879883 92.447 3.1222
177.246094 92.447 3.1282
177.612305 92.447 3.1341
177.978516 92.448 3.1400
178.344727 92.448 3.1459
178.710938 92.448 3.1518
179.077148 92.449 3.1577
179.443359 92.449 3.1636
179.809570 92.450 3.1694
180.175781 92.450 3.1753
180.541992 92.450 3.1812
180.908203 92.451 3.1871
181.274414 92.451 3.1930
181.640625 92.452 3.1989
182.006836 92.452 3.2049
182.373047 92.452 3.2108
182.739258 92.453 3.2167
183.105469 92.453 3.2227
183.471680 92.454 3.2286
183.837891 92.454 3.2346
184.204102 92.454 3.2405
184.570312 92.455 3.2464
184.936523 92.455 3.2524
185.302734 92.456 3.2583
185.668945 92.456 3.2642
186.035156 92.456 3.2701
186.401367 92.457 3.2759
186.767578 92.457 3.2818
187.133789 92.457 3.2877
187.500000 92.458 3.2936
187.866211 92.458 3.2994
188.232422 92.459 3.3053
188.598633 92.459 3.3111
188.964844 92.459 3.3169
189.331055 92.460 3.3228
189.697266 92.460 3.3286
190.063477 92.461 3.3344
190.429688 92.461 3.3402
190.795898 92.461 3.3461
191.162109 92.462 3.3519
191.528320 92.462 3.3577
191.894531 92.463 3.3635
192.260742 92.463 3.3694
192.626953 92.464 3.3752
192.993164 92.464 3.3810
193.359375 92.464 3.3868
193.725586 92.465 3.3926
194.091797 92.465 3.3985
194.458008 92.466 3.4043
194.824219 92.466 3.4101
195.190430 92.466 3.4159
195.556641 92.467 3.4217
195.922852 92.467 3.4275
196.289062 92.468 3.4334
196.655273 92.468 3.4392
197.021484 92.468 3.4450
197.387695 92.469 3.4508
197.753906 92.469 3.4566
198.120117 92.470 3.4624
198.486328 92.470 3.4682
198.852539 92.471 3.4739
199.218750 92.471 3.4797
199.584961 92.471 3.4854
199.951172 92.472 3.4912
200.317383 92.472 3.4969
200.683594 92.473 3.5026
201.049805 92.473 3.5084
201.416016 92.473 3.5141
201.782227 92.474 3.5198
202.148438 92.474 3.5255
202.514648 92.475 3.5312
202.880859 92.475 3.5369
203.247070 92.476 3.5427
203.613281 92.476 3.5484
203.979492 92.476 3.5541
204.345703 92.477 3.5598
204.711914 92.477 3.5656
205.078125 92.478 3.5713
205.444336 92.478 3.5771
205.810547 92.479 3.5828
206.176758 92.479 3.5885
206.542969 92.479 3.5943
206.909180 92.480 3.6000
207.275391 92.480 3.6057
207.641602 92.481 3.6114
208.007812 92.481 3.6171
208.374023 92.482 3.6228
208.740234 92.482 3.6285
209.106445 92.482 3.6342
209.472656 92.483 3.6398
209.838867 92.483 3.6455
210.205078 92.484 3.6511
210.571289 92.484 3.6568
210.937500 92.485 3.6624
211.303711 92.485 3.6680
211.669922 92.486 3.6736
212.036133 92.486 3.6792
212.402344 92.486 3.6849
212.768555 92.487 3.6905
213.134766 92.487 3.6961
213.500977 92.488 3.7018
213.867188 92.488 3.7074
214.233398 92.489 3.7131
214.599609 92.489 3.7187
214.965820 92.490 3.7243
215.332031 92.490 3.7300
215.698242 92.490 3.7356
216.064453 92.491 3.7413
216.430664 92.491 3.7469
216.796875 92.492 3.7525
217.163086 92.492 3.7582
217.529297 92.493 3.7638
217.895508 92.493 3.7694
218.261719 92.494 3.7750
218.627930 92.494 3.7806
218.994141 92.494 3.7862
219.360352 92.495 3.7917
219.726562 92.495 3.7973
220.092773 92.496 3.8029
220.458984 92.496 3.8084
220.825195 92.497 3.8140
221.191406 92.497 3.8195
221.557617 92.498 3.8251
221.923828 92.498 3.8306
222.290039 92.499 3.8362
222.656250 92.499 3.8417
223.022461 92.499 3.8472
223.388672 92.500 3.8528
223.754883 92.500 3.8583
224.121094 92.501 3.8639
224.487305 92.501 3.8694
224.853516 92.502 3.8749
225.219727 92.502 3.8804
225.585938 92.503 3.8860
225.952148 92.503 3.8915
226.318359 92.504 3.8970
226.684570 92.504 3.9025
227.050781 92.505 3.9081
227.416992 92.505 3.9136
227.783203 92.505 3.9191
228.149414 92.506 3.9246
228.515625 92.506 3.9301
228.881836 92.507 3.9356
229.248047 92.507 3.9411
229.614258 92.508 3.9466
229.980469 92.508 3.9521
230.346680 92.509 3.9576
230.712891 92.509 3.9631
231.079102 92.510 3.9686
231.445312 92.510 3.9740
231.811523 92.511 3.9795
232.177734 92.511 3.9849
232.543945 92.512 3.9904
232.910156 92.512 3.9958
233.276367 92.512 4.0012
233.642578 92.513 4.0067
234.008789 92.513 4.0121
234.375000 92.514 4.0175
234.741211 92.514 4.0229
235.107422 92.515 4.0283
235.473633 92.515 4.0337
235.839844 92.516 4.0392
236.206055 92.516 4.0446
236.572266 92.517 4.0500
236.938477 92.517 4.0555
237.304688 92.518 4.0609
237.670898 92.518 4.0663
238.037109 92.519 4.0718
238.403320 92.519 4.0772
238.769531 92.520 4.0826
239.135742 92.520 4.0880
239.501953 92.521 4.0934
239.868164 92.521 4.0988
240.234375 92.522 4.1042
240.600586 92.522 4.1096
240.966797 92.523 4.1149
241.333008 92.523 4.1203
241.699219 92.523 4.1256
242.065430 92.524 4.1310
242.431641 92.524 4.1363
242.797852 92.525 4.1417
243.164062 92.525 4.1470
243.530273 92.526 4.1523
243.896484 92.526 4.1576
244.262695 92.527 4.1630
244.628906 92.527 4.1683
244.995117 92.528 4.1736
245.361328 92.528 4.1789
245.727539 92.529 4.1843
246.093750 92.529 4.1896
246.459961 92.530 4.1949
246.826172 92.530 4.2003
247.192383 92.531 4.2056
247.558594 92.531 4.2109
247.924805 92.532 4.2163
248.291016 92.532 4.2216
248.657227 92.533 4.2269
249.023438 92.533 4.2322
249.389648 92.534 4.2375
249.755859 92.534 4.2428
250.122070 92.535 4.2481
250.488281 92.535 4.2533
250.854492 92.536 4.2586
251.220703 92.536 4.2639
251.586914 92.537 4.2691
251.953125 92.537 4.2744
252.319336 92.538 4.2796
252.685547 92.538 4.2849
253.051758 92.539 4.2901
253.417969 92.539 4.2954
253.784180 92.540 4.3006
254.150391 92.540 4.3058
254.516602 92.541 4.3111
254.882812 92.541 4.3163
255.249023 92.542 4.3215
255.615234 92.542 4.3268
255.981445 92.543 4.3320
256.347656 92.543 4.3372
256.713867 92.544 4.3424
257.080078 92.544 4.3476
257.446289 92.545 4.3528
257.812500 92.545 4.3580
258.178711 92.546 4.3632
258.544922 92.546 4.3684
258.911133 92.547 4.3736
259.277344 92.547 4.3788
259.643555 92.548 4.3840
260.009766 92.548 4.3892
260.375977 92.549 4.3944
260.742188 92.549 4.3996
261.108398 92.550 4.4048
261.474609 92.550 4.4099
261.840820 92.551 4.4151
262.207031 92.551 4.4203
262.573242 92.552 4.4254
262.939453 92.552 4.4306
263.305664 92.553 4.4357
263.671875 92.554 4.4409
264.038086 92.554 4.4460
264.404297 92.555 4.4511
264.770508 92.555 4.4562
265.136719 92.556 4.4614
265.502930 92.556 4.4665
265.869141 92.557 4.4716
266.235352 92.557 4.4767
266.601562 92.558 4.4818
266.967773 92.558 4.4869
267.333984 92.559 4.4920
267.700195 92.559 4.4971
268.066406 92.560 4.5022
268.432617 92.560 4.5073
268.798828 92.561 4.5124
269.165039 92.561 4.5175
269.531250 92.562 4.5226
269.897461 92.562 4.5277
270.263672 92.563 4.5328
270.629883 92.563 4.5379
270.996094 92.564 4.5429
271.362305 92.564 4.5480
271.728516 92.565 4.5531
272.094727 92.565 4.5581
272.460938 92.566 4.5632
272.827148 92.567 4.5682
273.193359 92.567 4.5733
273.559570 92.568 4.5783
273.925781 92.568 4.5833
274.291992 92.569 4.5884
274.658203 92.569 4.5934
275.024414 92.570 4.5984
275.390625 92.570 4.6034
275.756836 92.571 4.6084
276.123047 92.571 4.6134
276.489258 92.572 4.6184
276.855469 92.572 4.6234
277.221680 92.573 4.6284
277.587891 92.573 4.6334
277.954102 92.574 4.6384
278.320312 92.575 4.6434
278.686523 92.575 4.6484
279.052734 92.576 4.6534
279.418945 92.576 4.6584
279.785156 92.577 4.6634
280.151367 92.577 4.6683
280.517578 92.578 4.6733
280.883789 92.578 4.6783
281.250000 92.579 4.6833
281.616211 92.579 4.6882
281.982422 92.580 4.6932
282.348633 92.580 4.6981
282.714844 92.581 4.7031
283.081055 92.581 4.7080
283.447266 92.582 4.7129
283.813477 92.583 4.7179
284.179688 92.583 4.7228
284.545898 92.584 4.7277
284.912109 92.584 4.7326
285.278320 92.585 4.7375
285.644531 92.585 4.7424
286.010742 92.586 4.7473
286.376953 92.586 4.7522
286.743164 92.587 4.7571
287.109375 92.587 4.7620
287.475586 92.588 4.7669
287.841797 92.589 4.7718
288.208008 92.589 4.7767
288.574219 92.590 4.7816
288.940430 92.590 4.7865
289.306641 92.591 4.7913
289.672852 92.591 4.7962
290.039062 92.592 4.8011
290.405273 92.592 4.8059
290.771484 92.593 4.8108
291.137695 92.593 4.8156
291.503906 92.594 4.8205
291.870117 92.595 4.8253
292.236328 92.595 4.8302
292.602539 92.596 4.8350
292.968750 92.596 4.8399
293.334961 92.597 4.8447
293.701172 92.597 4.8496
294.067383 92.598 4.8544
294.433594 92.598 4.8592
294.799805 92.599 4.8640
295.166016 92.599 4.8688
295.532227 92.600 4.8736
295.898438 92.601 4.8784
296.264648 92.601 4.8832
296.630859 92.602 4.8880
296.997070 92.602 4.8928
297.363281 92.603 4.8976
297.729492 92.603 4.9023
298.095703 92.604 4.9071
298.461914 92.604 4.9119
298.828125 92.605 4.9166
299.194336 92.606 4.9214
299.560547 92.606 4.9262
299.926758 92.607 4.9309
300.292969 92.607 4.9357
300.659180 92.608 4.9404
301.025391 92.608 4.9452
301.391602 92.609 4.9499
301.757812 92.610 4.9547
302.124023 92.610 4.9594
302.490234 92.611 4.9642
302.856445 92.611 4.9689
303.222656 92.612 4.9736
303.588867 92.612 4.9784
303.955078 92.613 4.9831
304.321289 92.613 4.9878
304.687500 92.614 4.9925
305.053711 92.615 4.9972
305.419922 92.615 5.0019
305.786133 92.616 5.0066
306.152344 92.616 5.0113
306.518555 92.617 5.0160
306.884766 92.617 5.0206
307.250977 92.618 5.0253
307.617188 92.619 5.0300
307.983398 92.619 5.0346
308.349609 92.620 5.0393
308.715820 92.620 5.0439
309.082031 92.621 5.0486
309.448242 92.621 5.0532
309.814453 92.622 5.0579
310.180664 92.623 5.0625
310.546875 92.623 5.0672
310.913086 92.624 5.0718
311.279297 92.624 5.0765
311.645508 92.625 5.0811
312.011719 92.625 5.0858
312.377930 92.626 5.0904
312.744141 92.626 5.0950
313.110352 92.627 5.0996
313.476562 92.628 5.1042
313.842773 92.628 5.1089
314.208984 92.629 5.1135
314.575195 92.629 5.1181
314.941406 92.630 5.1227
315.307617 92.631 5.1273
